* Sea-Bird SBE19plus Data File:
* FileName = C:\Users\instrument\Desktop\Iola Rosa. CTD Cast. July.23\September 2023\15 January 2023 upload121.hex
* Software Version 1.59
* Temperature SN =  4268
* Conductivity SN =  4268
* System UpLoad Time = Jan 15 2024 13:57:00
* ds
* SeacatPlus V 1.6  SERIAL NO. 4268    15 Jan 2024  13:59:04
* vbatt = 11.9, vlith =  8.1, ioper =  61.6 ma, ipump =  88.8 ma,
* iext01 =  42.3 ma
* iext23 =  55.1 ma
*
* status = not logging
* number of scans to average = 1
* samples = 173964, free = 267110, casts = 121
* mode = profile, minimum cond freq = 2567, pump delay = 60 sec
* autorun = no, ignore magnetic switch = no
* battery type = alkaline, battery cutoff =  7.3 volts
* pressure sensor = strain gauge, range = 508.0
* SBE 38 = no, Gas Tension Device = no
* Ext Volt 0 = yes, Ext Volt 1 = yes, Ext Volt 2 = yes, Ext Volt 3 = yes
* echo commands = yes
* output format = raw HEX

* S>
*
* SeacatPlus V 1.6  SERIAL NO. 4268    15 Jan 2024  13:59:37
* temperature:  06-dec-05
*     TA0 = 1.161749e-03
*     TA1 = 2.891779e-04
*     TA2 = -3.393560e-06
*     TA3 = 2.889319e-07
*     TOFFSET = 0.000000e+00
* conductivity:  06-dec-05
*     G = -9.977815e-01
*     H = 1.528486e-01
*     I = -4.694078e-04
*     J = 6.039801e-05
*     CF0 = 2.561972e+03
*     CPCOR = -9.570000e-08
*     CTCOR = 3.250000e-06
*     CSLOPE = 1.000000e+00
* pressure S/N = 1980, range = 508 psia:  22-nov-05
*     PA0 = 1.166340e-01
*     PA1 = 1.562008e-03
*     PA2 = 7.521856e-12
*     PTCA0 = 5.244793e+05
*     PTCA1 = 6.705477e+00
*     PTCA2 = -1.525623e-01
*     PTCB0 = 2.485325e+01
*     PTCB1 = -3.500000e-04
*     PTCB2 = 0.000000e+00
*     PTEMPA0 = -7.187026e+01
*     PTEMPA1 = 4.819360e+01
*     PTEMPA2 = -2.287845e-02
*     POFFSET = 0.000000e+00
* volt 0: offset = -4.716333e-02, slope = 1.249825e+00
* volt 1: offset = -4.705000e-02, slope = 1.250722e+00
* volt 2: offset = -4.720000e-02, slope = 1.250906e+00
* volt 3: offset = 0.000000e+00, slope = 1.000000e+00
*     EXTFREQSF = 1.000004e+00
* dh
* cast 121 12 Jan 2024 14:50:06 samples 173172 to 173964, avg = 1, stop = mag switch

* S>
# nquan = 16
# nvalues = 632                                   
# units = specified
# name 0 = depFM: Depth [fresh water, m]
# name 1 = tv290C: Temperature [ITS-90, deg C]
# name 2 = tv268C: Temperature [IPTS-68, deg C]
# name 3 = specc: Specific Conductance [uS/cm]
# name 4 = c0uS/cm: Conductivity [uS/cm]
# name 5 = prdE: Pressure, Strain Gauge [psi]
# name 6 = sbeox0Mg/L: Oxygen, SBE 43 [mg/l]
# name 7 = sbeox0PS: Oxygen, SBE 43 [% saturation]
# name 8 = oxsolMg/L: Oxygen Saturation, Garcia & Gordon [mg/l]
# name 9 = oxsatMg/L: Oxygen Saturation, Weiss [mg/l]
# name 10 = par: PAR/Irradiance, Biospherical/Licor
# name 11 = flCM: Fluorescence, Chelsea Mini Chl Con [ug/l]
# name 12 = bat: Beam Attenuation, Chelsea/Seatech [1/m]
# name 13 = xmiss: Beam Transmission, Chelsea/Seatech [%]
# name 14 = density00: Density [density, kg/m^3]
# name 15 = flag:  0.000e+00
# span 0 =     -0.665,     15.547                 
# span 1 =     9.7074,    31.2117                 
# span 2 =     9.7097,    31.2192                 
# span 3 =     -2.674,    101.138                 
# span 4 =  -3.001336, 102.607700                 
# span 5 =     -0.946,     22.113                 
# span 6 =     0.0747,    10.1658                 
# span 7 =      0.658,    122.267                 
# span 8 =    7.40353,   11.36302                 
# span 9 =    7.38380,   11.35194                 
# span 10 = 2.8987e-01, 1.3839e+03                
# span 11 =    -0.3612,    67.3886                
# span 12 =     1.2533,    13.9875                
# span 13 =     3.0292,    73.1014                
# span 14 =   995.2738,   999.8372                
# span 15 = 0.0000e+00, 0.0000e+00                
# interval = seconds: 0.25
# start_time = Jan 12 2024 14:50:06 [Instrument's time stamp, header]
# bad_flag = -9.990e-29
# <Sensors count="7" >
#   <sensor Channel="1" >
#     <!-- Count, Temperature -->
#     <TemperatureSensor SensorID="58" >
#       <SerialNumber>4268</SerialNumber>
#       <CalibrationDate>06-Dec-05</CalibrationDate>
#       <A0>1.16174900e-003</A0>
#       <A1>2.89177900e-004</A1>
#       <A2>-3.39356000e-006</A2>
#       <A3>2.88931900e-007</A3>
#       <Slope>1.00000000</Slope>
#       <Offset>0.0000</Offset>
#     </TemperatureSensor>
#   </sensor>
#   <sensor Channel="2" >
#     <!-- Frequency 0, Conductivity -->
#     <ConductivitySensor SensorID="3" >
#       <SerialNumber>4268</SerialNumber>
#       <CalibrationDate>06-Dec-05</CalibrationDate>
#       <UseG_J>1</UseG_J>
#       <!-- Cell const and series R are applicable only for wide range sensors. -->
#       <SeriesR>0.0000</SeriesR>
#       <CellConst>2000.0000</CellConst>
#       <ConductivityType>0</ConductivityType>
#       <Coefficients equation="0" >
#         <A>0.00000000e+000</A>
#         <B>0.00000000e+000</B>
#         <C>0.00000000e+000</C>
#         <D>0.00000000e+000</D>
#         <M>0.0</M>
#         <CPcor>-9.57000000e-008</CPcor>
#       </Coefficients>
#       <Coefficients equation="1" >
#         <G>-9.97781500e-001</G>
#         <H>1.52848600e-001</H>
#         <I>-4.69407800e-004</I>
#         <J>6.03980100e-005</J>
#         <CPcor>-9.57000000e-008</CPcor>
#         <CTcor>3.2500e-006</CTcor>
#         <!-- WBOTC not applicable unless ConductivityType = 1. -->
#         <WBOTC>0.00000000e+000</WBOTC>
#       </Coefficients>
#       <Slope>1.00000000</Slope>
#       <Offset>0.00000</Offset>
#     </ConductivitySensor>
#   </sensor>
#   <sensor Channel="3" >
#     <!-- Count, Pressure, Strain Gauge -->
#     <PressureSensor SensorID="46" >
#       <SerialNumber>4268</SerialNumber>
#       <CalibrationDate>22-Nov-05</CalibrationDate>
#       <PA0>1.16634000e-001</PA0>
#       <PA1>1.56200800e-003</PA1>
#       <PA2>7.52185600e-012</PA2>
#       <PTEMPA0>-7.18702600e+001</PTEMPA0>
#       <PTEMPA1>4.81936000e+001</PTEMPA1>
#       <PTEMPA2>-2.28784500e-002</PTEMPA2>
#       <PTCA0>5.24479300e+005</PTCA0>
#       <PTCA1>6.70547700e+000</PTCA1>
#       <PTCA2>-1.52562300e-001</PTCA2>
#       <PTCB0>2.48532500e+001</PTCB0>
#       <PTCB1>-3.50000000e-004</PTCB1>
#       <PTCB2>0.00000000e+000</PTCB2>
#       <Offset>0.000000</Offset>
#     </PressureSensor>
#   </sensor>
#   <sensor Channel="4" >
#     <!-- A/D voltage 0, Oxygen, SBE 43 -->
#     <OxygenSensor SensorID="38" >
#       <SerialNumber>0268</SerialNumber>
#       <CalibrationDate>29-Feb-20</CalibrationDate>
#       <Use2007Equation>1</Use2007Equation>
#       <CalibrationCoefficients equation="0" >
#         <!-- Coefficients for Owens-Millard equation. -->
#         <Boc>0.0000</Boc>
#         <Soc>3.1260e-001</Soc>
#         <offset>-0.4337</offset>
#         <Pcor>1.35e-004</Pcor>
#         <Tcor>0.0023</Tcor>
#         <Tau>0.0</Tau>
#       </CalibrationCoefficients>
#       <CalibrationCoefficients equation="1" >
#         <!-- Coefficients for Sea-Bird equation - SBE calibration in 2007 and later. -->
#         <Soc>5.4910e-001</Soc>
#         <offset>-0.4386</offset>
#         <A>-3.6337e-003</A>
#         <B> 1.0518e-004</B>
#         <C>-1.0368e-006</C>
#         <D0> 2.5826e+000</D0>
#         <D1> 1.92634e-004</D1>
#         <D2>-4.64803e-002</D2>
#         <E> 3.6000e-002</E>
#         <Tau20> 1.2800</Tau20>
#         <H1>-3.3000e-002</H1>
#         <H2> 5.0000e+003</H2>
#         <H3> 1.4500e+003</H3>
#       </CalibrationCoefficients>
#     </OxygenSensor>
#   </sensor>
#   <sensor Channel="5" >
#     <!-- A/D voltage 1, Transmissometer, Chelsea/Seatech -->
#     <TransChelseaSeatechWetlabCStarSensor SensorID="59" >
#       <SerialNumber>CST-612PR</SerialNumber>
#       <CalibrationDate>6/27/02</CalibrationDate>
#       <M>19.4066</M>
#       <B>-1.1062</B>
#       <PathLength>0.250</PathLength>
#     </TransChelseaSeatechWetlabCStarSensor>
#   </sensor>
#   <sensor Channel="6" >
#     <!-- A/D voltage 2, Fluorometer, Chelsea Minitracka -->
#     <FluoroChelseaMinitrackaSensor SensorID="6" >
#       <SerialNumber>175011</SerialNumber>
#       <CalibrationDate>26-Mar-97</CalibrationDate>
#       <Vacetone>0.013</Vacetone>
#       <Vacetone100>3.612</Vacetone100>
#       <Offset>0.000</Offset>
#     </FluoroChelseaMinitrackaSensor>
#   </sensor>
#   <sensor Channel="7" >
#     <!-- A/D voltage 3, PAR/Irradiance, Biospherical/Licor -->
#     <PAR_BiosphericalLicorChelseaSensor SensorID="42" >
#       <SerialNumber>6404</SerialNumber>
#       <CalibrationDate>29-Nov-05</CalibrationDate>
#       <M>-0.76668700</M>
#       <B>-3.43363000</B>
#       <CalibrationConstant>3.42000000</CalibrationConstant>
#       <Multiplier>1.00000000</Multiplier>
#       <Offset>0.00000000</Offset>
#     </PAR_BiosphericalLicorChelseaSensor>
#   </sensor>
# </Sensors>
# datcnv_date = Jun 04 2024 15:04:07, 7.26.7.129 [datcnv_vars = 15]
# datcnv_in = C:\Users\ir64\OneDrive - The University of Waikato\Documents\Sampling\CTD casts\2024.01 CTD casts\2024.01 HEX files\15 January 2023 upload121.hex C:\Users\ir64\OneDrive - The University of Waikato\Documents\Sampling\CTD Documents\New 4268 & 6165 con files\20200723_SBE19_4268.xmlcon
# datcnv_skipover = 0
# datcnv_ox_hysteresis_correction = yes
# datcnv_ox_tau_correction = yes
# file_type = ascii
*END*
     -0.661    31.1502    31.1577     -2.618  -2.940574     -0.940     7.0402     94.993    7.41128    7.39152 6.5656e+01     0.7157     1.3163    71.9584   995.2930  0.000e+00
     -0.663    31.1583    31.1657     -2.591  -2.910194     -0.943     7.0403     95.007    7.41027    7.39051 6.8264e+01    -0.1132     1.3554    71.2595   995.2905  0.000e+00
     -0.663    31.1598    31.1672     -2.591  -2.910194     -0.943     7.0399     95.004    7.41008    7.39032 7.9263e+01    -0.1195     1.3360    71.6045   995.2900  0.000e+00
     -0.664    31.1470    31.1545     -2.591  -2.910194     -0.944     7.0425     95.019    7.41169    7.39193 8.2430e+01     1.0061     1.2974    72.3004   995.2940  0.000e+00
     -0.665    31.1288    31.1362     -2.592  -2.910194     -0.946     7.0442     95.012    7.41399    7.39422 8.2923e+01     0.6097     1.2668    72.8542   995.2997  0.000e+00
     -0.663    31.1154    31.1228     -2.593  -2.910194     -0.943     7.0454     95.007    7.41568    7.39591 6.8436e+01     0.2281     1.2533    73.1014   995.3039  0.000e+00
     -0.665    31.1257    31.1332     -2.592  -2.910194     -0.946     7.0451     95.020    7.41438    7.39461 6.7100e+01    -0.1768     1.2537    73.0940   995.3007  0.000e+00
     -0.664    31.1415    31.1490     -2.591  -2.910194     -0.944     7.0425     95.010    7.41238    7.39262 6.8766e+01    -0.3612     1.2587    73.0022   995.2957  0.000e+00
     -0.663    31.1440    31.1515     -2.591  -2.910194     -0.943     7.0417     95.003    7.41206    7.39230 1.5408e+02    -0.3612     1.2640    72.9060   995.2949  0.000e+00
     -0.663    31.1230    31.1305     -2.592  -2.910194     -0.943     7.0440     95.000    7.41471    7.39494 8.2355e+01    -0.3612     1.2666    72.8586   995.3015  0.000e+00
     -0.664    31.1111    31.1186     -2.593  -2.910194     -0.944     7.0468     95.019    7.41622    7.39644 8.9068e+01    -0.3612     1.2657    72.8749   995.3052  0.000e+00
     -0.662    31.1071    31.1146     -2.593  -2.910194     -0.941     7.0491     95.044    7.41673    7.39695 8.9416e+01    -0.3612     1.2645    72.8971   995.3065  0.000e+00
     -0.665    31.1095    31.1170     -2.593  -2.910194     -0.946     7.0468     95.016    7.41642    7.39664 3.9352e+02    -0.3612     1.2624    72.9356   995.3057  0.000e+00
     -0.665    31.1186    31.1260     -2.674  -3.001336     -0.946     7.0456     95.014    7.41528    7.39550 4.4873e+02    -0.3337     1.2613    72.9548   995.3029  0.000e+00
     -0.663    31.1327    31.1401     -2.592  -2.910194     -0.943     7.0444     95.021    7.41350    7.39373 4.2365e+02    21.8023     1.2608    72.9637   995.2985  0.000e+00
     -0.665    31.1615    31.1690     -2.591  -2.910194     -0.946     7.0396     95.003    7.40986    7.39011 5.2355e+02    39.2533     1.2602    72.9756   995.2895  0.000e+00
     -0.663    31.1970    31.2045     -2.589  -2.910193     -0.943     7.0350     94.999    7.40538    7.38565 1.9912e+02    52.8843     1.2598    72.9830   995.2784  0.000e+00
     -0.662    31.2117    31.2192     -2.669  -3.001335     -0.941     7.0326     94.990    7.40353    7.38380 8.7491e+02    63.4837     1.2592    72.9933   995.2738  0.000e+00
     -0.663    31.1986    31.2061     -2.670  -3.001335     -0.943     7.0338     94.985    7.40518    7.38545 9.9493e+02    67.3886     1.2590    72.9963   995.2779  0.000e+00
     -0.664    31.1982    31.2057     -2.670  -3.001335     -0.944     7.0317     94.955    7.40522    7.38549 1.0937e+03    49.7956     1.2581    73.0141   995.2780  0.000e+00
     -0.590    31.1719    31.1794     42.622  47.890024     -0.840     7.0347     94.968    7.40740    7.38766 1.0352e+03    37.3348     1.4553    69.5005   995.3077  0.000e+00
     -0.475    30.0144    30.0216     77.013  84.747788     -0.675     7.1775     95.000    7.55526    7.53503 1.0822e+03    29.5442     8.3757    12.3201   995.6745  0.000e+00
     -0.408    28.3894    28.3963     90.848  97.018658     -0.580     7.3858     95.031    7.77201    7.75157 1.4534e+02    24.5942    11.6328     5.4574   996.1584  0.000e+00
     -0.341    27.3776    27.3842     94.877  99.400679     -0.485     7.5226     95.073    7.91251    7.89218 7.5246e+01     8.8709     7.3658    15.8588   996.4465  0.000e+00
     -0.261    26.7296    26.7360     95.741  99.064991     -0.371     7.6230     95.229    8.00487    7.98468 7.1252e+01     2.2272     5.6588    24.2999   996.6257  0.000e+00
     -0.205    26.2419    26.2482     95.937  98.332296     -0.291     7.7094     95.465    8.07563    8.05559 6.9272e+01    -0.3612     2.0613    59.7314   996.7578  0.000e+00
     -0.156    25.8845    25.8907     96.281  97.996529     -0.222     7.8047     96.020    8.12818    8.10827 6.5071e+01     2.6172     2.6598    51.4295   996.8533  0.000e+00
     -0.114    25.6494    25.6555     96.879  98.149277     -0.163     7.8892     96.645    8.16308    8.14326 4.6966e+01    10.8933     3.0235    46.9594   996.9156  0.000e+00
     -0.073    25.5025    25.5086     97.433  98.424139     -0.103     7.9653     97.316    8.18500    8.16525 6.1844e+01     6.4967     1.9636    61.2075   996.9545  0.000e+00
     -0.032    25.4274    25.4335     99.122  99.981517     -0.046     8.0338     98.019    8.19622    8.17650 6.7070e+01     8.2541     1.7193    65.0616   996.9748  0.000e+00
     -0.003    25.4026    25.4087     99.656 100.470131     -0.005     8.0946     98.715    8.19994    8.18024 4.7912e+01     5.0509     1.6742    65.8004   996.9815  0.000e+00
      0.023    25.4096    25.4157    100.611 101.447378      0.033     8.1451     99.344    8.19887    8.17916 5.1794e+01     2.9013     1.6534    66.1425   996.9802  0.000e+00
      0.032    25.5543    25.5604    101.138 102.271919      0.045     8.1581     99.767    8.17718    8.15741 4.5661e+01     4.4700     1.6644    65.9618   996.9426  0.000e+00
      0.029    25.7365    25.7427    100.474 101.966452      0.042     8.1554    100.066    8.15003    8.13018 4.7857e+01    -0.3612     1.6720    65.8360   996.8946  0.000e+00
      0.026    25.9018    25.9080     99.488 101.294517      0.037     8.1394    100.171    8.12556    8.10565 5.2800e+01     0.9234     1.6756    65.7768   996.8506  0.000e+00
      0.017    26.0175    26.0237     98.783 100.805854      0.025     8.1146    100.075    8.10851    8.08855 4.4179e+01     3.8934     1.6672    65.9145   996.8196  0.000e+00
      0.020    26.0141    26.0203     97.922  99.920252      0.028     8.1012     99.904    8.10902    8.08907 5.4684e+01    -0.3612     1.6621    65.9989   996.8202  0.000e+00
      0.032    25.8855    25.8917     97.510  99.248483      0.045     8.0947     99.590    8.12801    8.10811 4.2374e+01    -0.3612     1.6612    66.0137   996.8543  0.000e+00
      0.039    25.7815    25.7877     98.341  99.889790      0.056     8.0960     99.418    8.14340    8.12353 4.8121e+01    -0.3612     1.6729    65.8212   996.8821  0.000e+00
      0.037    25.7274    25.7336     98.777 100.225721      0.053     8.0877     99.218    8.15143    8.13158 4.4586e+01    -0.3612     1.6611    66.0166   996.8964  0.000e+00
      0.038    25.6732    25.6794     98.551  99.889825      0.054     8.0732     98.943    8.15949    8.13967 4.2676e+01    -0.3612     1.6542    66.1291   996.9106  0.000e+00
      0.047    25.6363    25.6425     98.050  99.309636      0.067     8.0405     98.475    8.16500    8.14519 4.5944e+01    -0.3612     1.6574    66.0773   996.9202  0.000e+00
      0.090    25.6041    25.6102     97.298  98.485178      0.128     7.6017     93.046    8.16982    8.15003 6.4626e+01    -0.3612     1.6625    65.9929   996.9286  0.000e+00
      0.147    25.5855    25.5917     97.273  98.424115      0.209     7.2923     89.229    8.17259    8.15280 8.4845e+01    -0.3612     1.6736    65.8093   996.9337  0.000e+00
      0.199    25.5318    25.5379     97.377  98.424132      0.283     7.3879     90.310    8.18062    8.16086 9.4082e+01     5.8819     1.6686    65.8922   996.9480  0.000e+00
      0.224    25.4661    25.4722     97.413  98.332548      0.319     7.6562     93.477    8.19045    8.17072 5.2595e+01    10.3252     1.6694    65.8789   996.9652  0.000e+00
      0.225    25.4149    25.4210     97.421  98.240960      0.320     7.8085     95.247    8.19814    8.17843 5.1309e+01     9.1465     1.6730    65.8197   996.9786  0.000e+00
      0.198    25.3677    25.3738     97.360  98.088301      0.281     7.8380     95.524    8.20523    8.18553 1.2036e+02     4.0100     1.6529    66.1514   996.9907  0.000e+00
      0.167    25.3258    25.3319     96.865  97.508164      0.237     7.7135     93.935    8.21155    8.19188 4.4098e+01     3.4376     1.6555    66.1084   997.0013  0.000e+00
      0.164    25.2833    25.2894     96.704  97.263908      0.233     7.6168     92.684    8.21795    8.19830 6.0526e+01     2.1085     1.6608    66.0211   997.0122  0.000e+00
      0.178    25.2690    25.2751     97.066  97.599783      0.253     7.6118     92.599    8.22010    8.20045 4.6816e+01     2.2823     1.7225    65.0098   997.0161  0.000e+00
      0.210    25.2790    25.2851     97.684  98.241003      0.298     7.6081     92.572    8.21858    8.19893 4.5182e+01     2.0894     1.6875    65.5813   997.0139  0.000e+00
      0.252    25.2958    25.3019     98.076  98.668491      0.358     7.6031     92.540    8.21604    8.19638 4.9975e+01     1.4237     1.6879    65.5754   997.0099  0.000e+00
      0.311    25.3086    25.3147     97.627  98.240994      0.442     7.5947     92.460    8.21412    8.19445 4.3836e+01     1.5615     1.6889    65.5591   997.0066  0.000e+00
      0.360    25.3100    25.3161     98.413  99.034917      0.512     7.5978     92.500    8.21389    8.19422 5.5734e+01     1.1821     1.6920    65.5073   997.0068  0.000e+00
      0.380    25.3200    25.3261     99.000  99.645646      0.541     7.6186     92.770    8.21237    8.19270 4.4780e+01     2.2611     1.7019    65.3459   997.0045  0.000e+00
      0.378    25.3436    25.3497     99.045  99.737249      0.537     7.6126     92.736    8.20882    8.18914 6.0902e+01     1.7184     1.6854    65.6169   996.9983  0.000e+00
      0.357    25.4602    25.4664     98.634  99.553989      0.508     7.5288     91.912    8.19131    8.17158 4.7813e+01     1.5149     1.6912    65.5206   996.9678  0.000e+00
      0.331    25.5478    25.5540     97.587  98.668411      0.470     7.4161     90.682    8.17822    8.15845 4.7171e+01     0.8620     1.6932    65.4880   996.9444  0.000e+00
      0.320    25.5296    25.5357     96.867  97.905043      0.455     7.3200     89.476    8.18096    8.16119 4.4831e+01     1.8965     1.6899    65.5428   996.9489  0.000e+00
      0.321    25.4596    25.4657     97.092  97.996669      0.456     7.2851     88.936    8.19144    8.17171 4.3337e+01     2.0300     1.6746    65.7930   996.9673  0.000e+00
      0.327    25.4038    25.4099     97.684  98.485245      0.466     7.2672     88.627    8.19980    8.18009 4.6261e+01     2.4159     1.6807    65.6938   996.9820  0.000e+00
      0.328    25.3837    25.3898     98.299  99.065429      0.467     7.2758     88.699    8.20281    8.18311 4.1093e+01     3.0857     1.6849    65.6243   996.9875  0.000e+00
      0.331    25.3769    25.3830     98.161  98.912752      0.470     7.3004     88.988    8.20383    8.18414 4.5369e+01     2.4434     1.6726    65.8271   996.9892  0.000e+00
      0.327    25.3591    25.3651     98.014  98.729543      0.466     7.3237     89.243    8.20652    8.18683 3.9064e+01     1.8795     1.6630    65.9840   996.9938  0.000e+00
      0.327    25.3289    25.3350     97.830  98.485269      0.466     7.3287     89.254    8.21106    8.19139 4.2549e+01     1.4365     1.6634    65.9781   997.0015  0.000e+00
      0.325    25.2952    25.3012     97.501  98.088325      0.462     7.3174     89.061    8.21615    8.19649 4.1159e+01     1.6039     1.6900    65.5399   997.0102  0.000e+00
      0.334    25.2730    25.2790     97.453  97.996728      0.475     7.2938     88.737    8.21950    8.19985 3.9951e+01     0.8683     1.6752    65.7842   997.0159  0.000e+00
      0.336    25.2650    25.2710     97.620  98.149404      0.478     7.2712     88.450    8.22070    8.20105 4.1140e+01     1.9664     1.6838    65.6420   997.0181  0.000e+00
      0.344    25.2712    25.2772     97.699  98.241007      0.489     7.2423     88.108    8.21976    8.20011 4.0291e+01     1.1312     1.6708    65.8567   997.0165  0.000e+00
      0.342    25.2904    25.2964     97.844  98.424211      0.486     7.1732     87.298    8.21686    8.19721 4.0144e+01     1.8901     1.6651    65.9500   997.0116  0.000e+00
      0.342    25.3128    25.3189     97.831  98.454739      0.486     7.0788     86.185    8.21349    8.19382 4.2676e+01     1.2012     1.6700    65.8686   997.0058  0.000e+00
      0.341    25.3156    25.3217     97.947  98.576879      0.484     6.9692     84.855    8.21306    8.19339 4.0328e+01     1.3856     1.6667    65.9233   997.0051  0.000e+00
      0.339    25.3068    25.3129     97.812  98.424205      0.483     6.8679     83.608    8.21438    8.19472 3.8469e+01     1.1291     1.6614    66.0107   997.0073  0.000e+00
      0.338    25.2987    25.3047     97.494  98.088324      0.481     6.7792     82.516    8.21562    8.19596 4.1824e+01     3.1875     1.6689    65.8878   997.0093  0.000e+00
      0.339    25.2855    25.2915     97.520  98.088328      0.483     6.7157     81.723    8.21761    8.19795 4.0208e+01     3.7917     1.6850    65.6228   997.0127  0.000e+00
      0.341    25.2728    25.2788     97.605  98.149402      0.484     6.6830     81.306    8.21952    8.19987 4.0765e+01     3.0031     1.6850    65.6228   997.0161  0.000e+00
      0.345    25.2626    25.2687     97.625  98.149405      0.491     6.6712     81.147    8.22105    8.20141 4.0024e+01     2.6914     1.6771    65.7516   997.0187  0.000e+00
      0.347    25.2546    25.2607     97.914  98.424222      0.494     6.6590     80.988    8.22225    8.20261 4.0541e+01     0.9616     1.6823    65.6672   997.0209  0.000e+00
      0.349    25.2536    25.2597     97.916  98.424223      0.497     6.6358     80.704    8.22241    8.20277 4.0458e+01     0.5970     1.6780    65.7368   997.0212  0.000e+00
      0.345    25.2564    25.2625     97.971  98.485292      0.491     6.5889     80.137    8.22198    8.20234 3.9969e+01     0.9213     1.6711    65.8508   997.0204  0.000e+00
      0.346    25.2516    25.2577     97.920  98.424223      0.492     6.5256     79.360    8.22271    8.20307 3.8057e+01     1.8265     1.6701    65.8671   997.0217  0.000e+00
      0.348    25.2403    25.2463     97.851  98.332622      0.495     6.4586     78.530    8.22443    8.20479 3.7909e+01     1.7672     1.6645    65.9604   997.0246  0.000e+00
      0.349    25.2264    25.2324     97.878  98.332626      0.497     6.3984     77.777    8.22653    8.20690 3.7494e+01     1.7502     1.6644    65.9618   997.0282  0.000e+00
      0.350    25.2115    25.2176     97.724  98.149421      0.498     6.3479     77.143    8.22877    8.20915 3.8628e+01     1.2499     1.6838    65.6420   997.0320  0.000e+00
      0.350    25.1995    25.2056     97.839  98.241030      0.498     6.3206     76.794    8.23058    8.21097 3.6586e+01     1.4259     1.7073    65.2571   997.0351  0.000e+00
      0.352    25.1893    25.1953     97.859  98.241033      0.500     6.3108     76.661    8.23213    8.21252 3.7874e+01     0.8620     1.6832    65.6524   997.0378  0.000e+00
      0.356    25.1777    25.1837     97.790  98.149432      0.506     6.3119     76.657    8.23389    8.21428 3.7917e+01     2.0406     1.6840    65.6391   997.0408  0.000e+00
      0.360    25.1644    25.1705     98.090  98.424251      0.513     6.3081     76.593    8.23588    8.21628 3.7623e+01     2.7932     1.6818    65.6746   997.0443  0.000e+00
      0.365    25.1670    25.1730     98.115  98.454786      0.519     6.2979     76.473    8.23550    8.21590 3.7589e+01     2.6088     1.6779    65.7397   997.0437  0.000e+00
      0.363    25.1830    25.1890     98.358  98.729599      0.516     6.2763     76.233    8.23307    8.21346 3.8407e+01     4.0185     1.6866    65.5961   997.0396  0.000e+00
      0.353    25.1919    25.1980     98.857  99.248709      0.502     6.2424     75.834    8.23171    8.21210 3.6202e+01     2.4901     1.6678    65.9056   997.0374  0.000e+00
      0.336    25.1962    25.2023     98.575  98.973882      0.478     6.1883     75.182    8.23106    8.21145 3.8057e+01     1.6887     1.6638    65.9707   997.0362  0.000e+00
      0.320    25.1928    25.1988     98.278  98.668525      0.455     6.1273     74.437    8.23160    8.21198 3.7323e+01     0.1921     1.6630    65.9840   997.0369  0.000e+00
      0.310    25.1840    25.1901     98.051  98.424244      0.441     6.0689     73.714    8.23292    8.21331 3.7615e+01    -0.1598     1.6817    65.6761   997.0390  0.000e+00
      0.308    25.1748    25.1809     97.796  98.149433      0.438     6.0205     73.115    8.23432    8.21471 3.6645e+01     0.4677     1.6856    65.6124   997.0413  0.000e+00
      0.310    25.1729    25.1789     97.982  98.332643      0.441     5.9898     72.740    8.23461    8.21501 3.7735e+01     0.8238     1.6869    65.5917   997.0419  0.000e+00
      0.316    25.1853    25.1914     98.536  98.912813      0.450     5.9761     72.589    8.23271    8.21310 3.5921e+01     0.9870     1.6695    65.8774   997.0389  0.000e+00
      0.321    25.2315    25.2376     98.840  99.309769      0.456     5.9692     72.567    8.22572    8.20609 3.7365e+01     0.9128     1.6656    65.9411   997.0271  0.000e+00
      0.325    25.2741    25.2802     98.939  99.492975      0.463     5.9614     72.529    8.21930    8.19965 3.7666e+01     0.5652     1.6658    65.9381   997.0161  0.000e+00
      0.331    25.2853    25.2914     98.400  98.973853      0.470     5.9494     72.398    8.21762    8.19796 3.5626e+01     0.9998     1.6717    65.8419   997.0130  0.000e+00
      0.341    25.2759    25.2820     98.358  98.912784      0.484     5.9290     72.138    8.21904    8.19939 3.7486e+01     1.1821     1.6805    65.6968   997.0155  0.000e+00
      0.354    25.2628    25.2689     98.779  99.309759      0.503     5.9153     71.953    8.22100    8.20136 3.6477e+01     0.8662     1.8122    63.5691   997.0191  0.000e+00
      0.368    25.2637    25.2697     99.354  99.889961      0.523     5.8953     71.712    8.22086    8.20122 3.7263e+01     2.5791     1.7156    65.1223   997.0191  0.000e+00
      0.379    25.2728    25.2788     99.670 100.225873      0.539     5.8660     71.367    8.21948    8.19983 3.6923e+01     4.1436     1.6851    65.6213   997.0169  0.000e+00
      0.383    25.2790    25.2851     99.810 100.378561      0.545     5.8266     70.896    8.21854    8.19889 3.5963e+01     2.7360     1.6878    65.5769   997.0154  0.000e+00
      0.385    25.2775    25.2836     99.661 100.225871      0.547     5.7892     70.439    8.21877    8.19912 3.5798e+01     1.7396     1.6889    65.5591   997.0157  0.000e+00
      0.389    25.2796    25.2856     99.505 100.073182      0.553     5.7510     69.977    8.21846    8.19881 3.6153e+01     1.9622     1.6798    65.7072   997.0152  0.000e+00
      0.391    25.2886    25.2947     99.214  99.798342      0.556     5.7177     69.583    8.21711    8.19745 3.6982e+01     1.6824     1.6988    65.3962   997.0127  0.000e+00
      0.391    25.2974    25.3035     99.621 100.225865      0.556     5.6928     69.291    8.21576    8.19610 3.6460e+01     1.9071     1.6839    65.6405   997.0106  0.000e+00
      0.390    25.3082    25.3142     99.843 100.470166      0.555     5.6659     68.977    8.21414    8.19448 3.7075e+01     1.5276     1.6878    65.5769   997.0079  0.000e+00
      0.386    25.3197    25.3258     99.971 100.622854      0.548     5.6429     68.713    8.21239    8.19272 3.5806e+01     0.7602     1.7036    65.3178   997.0049  0.000e+00
      0.381    25.3320    25.3381    100.038 100.714466      0.542     5.6174     68.416    8.21055    8.19087 3.7383e+01     1.2160     1.7222    65.0157   997.0017  0.000e+00
      0.378    25.3449    25.3510     99.679 100.378539      0.538     5.5929     68.135    8.20861    8.18893 3.5407e+01     1.1757     1.6910    65.5236   996.9982  0.000e+00
      0.377    25.3569    25.3630     99.504 100.225845      0.536     5.5703     67.875    8.20681    8.18713 3.8048e+01     0.9213     1.6831    65.6539   996.9950  0.000e+00
      0.378    25.3661    25.3722     99.576 100.317456      0.538     5.5514     67.656    8.20542    8.18573 3.4660e+01     2.1593     1.6808    65.6909   996.9927  0.000e+00
      0.380    25.3763    25.3824     99.859 100.622836      0.541     5.5362     67.483    8.20388    8.18419 3.6796e+01     3.4567     1.6911    65.5221   996.9901  0.000e+00
      0.386    25.3893    25.3954    100.257 101.050375      0.549     5.5203     67.305    8.20192    8.18221 3.6277e+01     1.2711     1.7162    65.1120   996.9869  0.000e+00
      0.383    25.4007    25.4068    100.326 101.141989      0.545     5.5001     67.072    8.20021    8.18051 3.5839e+01     2.0661     1.7033    65.3237   996.9840  0.000e+00
      0.381    25.4080    25.4141    100.311 101.141986      0.542     5.4731     66.753    8.19911    8.17940 3.5921e+01     1.8901     1.7119    65.1830   996.9820  0.000e+00
      0.382    25.4166    25.4227    100.112 100.958749      0.544     5.4521     66.506    8.19783    8.17812 3.6369e+01     1.7438     1.7134    65.1579   996.9798  0.000e+00
      0.380    25.4290    25.4351     99.936 100.806050      0.541     5.4245     66.185    8.19596    8.17624 3.6494e+01     2.0322     1.6919    65.5088   996.9764  0.000e+00
      0.379    25.4432    25.4493     99.908 100.806045      0.539     5.3983     65.883    8.19384    8.17411 3.6603e+01     1.3220     1.6952    65.4555   996.9727  0.000e+00
      0.380    25.4572    25.4633    100.032 100.958735      0.541     5.3709     65.565    8.19173    8.17200 3.6502e+01     1.6569     1.6948    65.4614   996.9691  0.000e+00
      0.380    25.4717    25.4778    100.124 101.080887      0.541     5.3435     65.248    8.18956    8.16982 3.6294e+01     0.9489     1.7041    65.3104   996.9654  0.000e+00
      0.382    25.4862    25.4923    100.307 101.294658      0.544     5.3151     64.919    8.18739    8.16764 3.5439e+01     0.4571     1.6957    65.4481   996.9617  0.000e+00
      0.381    25.4980    25.5042    100.374 101.386272      0.542     5.2921     64.652    8.18561    8.16586 3.8153e+01     0.6712     1.6810    65.6879   996.9586  0.000e+00
      0.381    25.5086    25.5148    100.262 101.294650      0.542     5.2656     64.340    8.18402    8.16427 3.6178e+01     0.5207     1.6853    65.6183   996.9558  0.000e+00
      0.381    25.5204    25.5265    100.239 101.294646      0.542     5.2433     64.081    8.18226    8.16251 3.7169e+01     0.5715     1.6841    65.6376   996.9527  0.000e+00
      0.382    25.5335    25.5396    100.213 101.294642      0.544     5.2244     63.866    8.18031    8.16054 3.6847e+01     0.6224     1.7038    65.3148   996.9493  0.000e+00
      0.377    25.5473    25.5534    100.427 101.538955      0.536     5.2032     63.623    8.17824    8.15847 3.6219e+01     0.7454     1.6939    65.4762   996.9458  0.000e+00
      0.375    25.5591    25.5653    100.011 101.141937      0.533     5.1846     63.409    8.17648    8.15670 3.6948e+01     1.3495     1.6928    65.4940   996.9425  0.000e+00
      0.379    25.5662    25.5724     99.725 100.867083      0.539     5.1694     63.231    8.17542    8.15564 3.7067e+01     1.5319     1.7145    65.1401   996.9406  0.000e+00
      0.380    25.5699    25.5760     99.990 101.141933      0.541     5.1542     63.050    8.17488    8.15510 3.6957e+01     1.3474     1.7413    64.7048   996.9397  0.000e+00
      0.381    25.5759    25.5821    100.280 101.447326      0.542     5.1403     62.887    8.17396    8.15418 3.5889e+01     1.0231     1.6864    65.5991   996.9382  0.000e+00
      0.380    25.5840    25.5901    100.264 101.447323      0.541     5.1257     62.717    8.17276    8.15297 3.6872e+01     1.6633     1.6789    65.7220   996.9361  0.000e+00
      0.381    25.5938    25.5999    100.184 101.386241      0.542     5.1149     62.596    8.17130    8.15151 3.6805e+01     1.6082     1.6948    65.4614   996.9335  0.000e+00
      0.382    25.6054    25.6115    100.161 101.386237      0.544     5.1073     62.516    8.16956    8.14977 3.6377e+01     1.1651     1.6953    65.4540   996.9305  0.000e+00
      0.383    25.6188    25.6250    100.135 101.386233      0.545     5.0987     62.427    8.16756    8.14776 3.5806e+01     0.7115     1.7483    64.5923   996.9269  0.000e+00
      0.381    25.6321    25.6383    100.169 101.447308      0.542     5.0901     62.336    8.16558    8.14577 3.7212e+01     0.3447     1.7224    65.0113   996.9235  0.000e+00
      0.381    25.6458    25.6519    100.323 101.630542      0.542     5.0830     62.265    8.16354    8.14373 3.5269e+01    -0.2722     1.6852    65.6198   996.9199  0.000e+00
      0.374    25.6578    25.6639    100.540 101.874860      0.531     5.0772     62.207    8.16175    8.14193 3.8592e+01     0.1348     1.6743    65.7990   996.9168  0.000e+00
      0.367    25.6665    25.6727    100.101 101.447296      0.522     5.0732     62.168    8.16045    8.14063 3.7178e+01     0.5546     1.6608    66.0211   996.9143  0.000e+00
      0.364    25.6720    25.6781     99.517 100.867048      0.517     5.0729     62.171    8.15966    8.13983 3.7042e+01     0.5885     1.6710    65.8523   996.9127  0.000e+00
      0.365    25.6702    25.6764     99.460 100.805971      0.519     5.0748     62.192    8.15991    8.14009 3.7374e+01     1.0634     1.6835    65.6465   996.9131  0.000e+00
      0.371    25.6634    25.6695     99.866 101.202981      0.528     5.0650     62.065    8.16093    8.14111 3.7246e+01     1.0231     1.6794    65.7146   996.9151  0.000e+00
      0.377    25.6677    25.6738    100.520 101.874856      0.536     5.0552     61.949    8.16028    8.14045 3.8100e+01     1.0824     1.6917    65.5132   996.9142  0.000e+00
      0.379    25.6779    25.6840    100.741 102.119177      0.539     5.0472     61.862    8.15875    8.13893 3.8654e+01     0.7708     1.6856    65.6124   996.9116  0.000e+00
      0.379    25.6782    25.6844    100.590 101.966474      0.539     5.0594     62.013    8.15870    8.13887 3.7323e+01     1.3050     1.7120    65.1815   996.9115  0.000e+00
      0.377    25.6891    25.6953    100.146 101.538908      0.536     5.0791     62.266    8.15709    8.13726 3.6486e+01     1.2753     1.6924    65.5014   996.9085  0.000e+00
      0.378    25.7410    25.7472     99.653 101.141877      0.538     5.1037     62.627    8.14938    8.12953 3.9469e+01     0.9192     1.6864    65.5991   996.8946  0.000e+00
      0.378    25.7840    25.7902     99.388 100.958628      0.538     5.1136     62.797    8.14301    8.12314 3.7468e+01     1.1906     1.6736    65.8093   996.8832  0.000e+00
      0.382    25.8068    25.8130     99.674 101.294552      0.544     5.1183     62.881    8.13961    8.11973 3.7443e+01     0.9489     1.6658    65.9381   996.8773  0.000e+00
      0.383    25.8448    25.8510    100.080 101.783177      0.545     5.1119     62.847    8.13398    8.11409 3.6603e+01     1.2075     1.6752    65.7842   996.8674  0.000e+00
      0.388    25.9119    25.9181    100.128 101.966397      0.552     5.0933     62.694    8.12406    8.10414 3.7684e+01     1.0761     1.7125    65.1727   996.8497  0.000e+00
      0.388    25.9593    25.9655    100.095 102.027462      0.552     5.0874     62.676    8.11706    8.09712 3.7357e+01     1.2838     1.7012    65.3577   996.8372  0.000e+00
      0.385    25.9830    25.9892     99.988 101.966373      0.547     5.0851     62.674    8.11357    8.09362 3.8310e+01     1.3495     1.7120    65.1815   996.8308  0.000e+00
      0.383    25.9908    25.9971     99.703 101.691508      0.545     5.0788     62.605    8.11241    8.09246 3.6729e+01     1.1821     1.7118    65.1845   996.8286  0.000e+00
      0.384    25.9896    25.9958     99.466 101.447190      0.547     5.0842     62.670    8.11260    8.09265 3.7727e+01     1.1460     1.7214    65.0276   996.8289  0.000e+00
      0.382    25.9882    25.9945     99.469 101.447190      0.544     5.0832     62.656    8.11280    8.09285 3.6037e+01     1.1121     1.6957    65.4481   996.8292  0.000e+00
      0.386    25.9906    25.9968     99.644 101.630428      0.548     5.0756     62.566    8.11245    8.09250 3.7067e+01     1.0188     1.7172    65.0957   996.8287  0.000e+00
      0.384    26.0003    26.0065     99.954 101.966368      0.547     5.0595     62.378    8.11101    8.09106 3.8214e+01     0.6627     1.7155    65.1238   996.8262  0.000e+00
      0.389    26.0144    26.0206    100.076 102.119066      0.553     5.0481     62.254    8.10893    8.08898 3.6788e+01     1.2118     1.6959    65.4436   996.8225  0.000e+00
      0.388    26.0269    26.0331    100.052 102.119062      0.552     5.0397     62.165    8.10709    8.08713 3.9587e+01     1.2647     1.6939    65.4762   996.8192  0.000e+00
      0.383    26.0371    26.0434     99.792 101.874734      0.545     5.0391     62.168    8.10559    8.08563 3.8039e+01     1.2499     1.7017    65.3489   996.8163  0.000e+00
      0.383    26.0452    26.0515     99.687 101.783111      0.545     5.0405     62.195    8.10440    8.08443 3.8690e+01     0.7115     1.6859    65.6080   996.8141  0.000e+00
      0.385    26.0516    26.0579     99.674 101.783109      0.547     5.0391     62.185    8.10346    8.08349 3.9750e+01     1.0867     1.6863    65.6020   996.8125  0.000e+00
      0.386    26.0587    26.0650     99.750 101.874727      0.548     5.0366     62.161    8.10241    8.08244 3.7779e+01     1.0994     1.7024    65.3370   996.8106  0.000e+00
      0.386    26.0673    26.0736     99.883 102.027426      0.548     5.0320     62.115    8.10114    8.08117 3.9162e+01     0.8493     1.6968    65.4288   996.8083  0.000e+00
      0.389    26.0766    26.0829    100.044 102.210667      0.553     5.0246     62.034    8.09978    8.07980 3.7365e+01     0.9446     1.6965    65.4347   996.8059  0.000e+00
      0.389    26.0855    26.0918     99.847 102.027420      0.553     5.0158     61.935    8.09847    8.07849 3.7025e+01     1.1503     1.7047    65.3000   996.8035  0.000e+00
      0.389    26.0936    26.0999     99.682 101.874715      0.553     5.0117     61.894    8.09728    8.07730 3.6830e+01     1.2224     1.6920    65.5073   996.8013  0.000e+00
      0.389    26.1014    26.1076     99.667 101.874713      0.553     5.0071     61.845    8.09615    8.07616 3.7978e+01     1.4471     1.6946    65.4658   996.7992  0.000e+00
      0.392    26.1081    26.1144     99.743 101.966332      0.558     5.0002     61.768    8.09515    8.07516 3.8039e+01     1.8138     1.6878    65.5769   996.7974  0.000e+00
      0.387    26.1151    26.1214     99.969 102.210655      0.550     4.9946     61.706    8.09413    8.07413 3.7831e+01     1.2139     1.6919    65.5102   996.7956  0.000e+00
      0.388    26.1219    26.1281     99.866 102.119030      0.552     4.9915     61.676    8.09313    8.07314 3.7486e+01     0.8768     1.6962    65.4392   996.7938  0.000e+00
      0.391    26.1277    26.1339     99.795 102.057947      0.556     4.9894     61.656    8.09228    8.07229 3.8153e+01     0.9743     1.6938    65.4777   996.7922  0.000e+00
      0.390    26.1329    26.1392     99.755 102.027405      0.555     4.9885     61.651    8.09152    8.07152 3.8921e+01     1.1672     1.6881    65.5710   996.7908  0.000e+00
      0.392    26.1384    26.1447     99.744 102.027403      0.558     4.9861     61.628    8.09071    8.07071 3.7263e+01     1.5149     1.7073    65.2585   996.7894  0.000e+00
      0.393    26.1436    26.1499     99.913 102.210645      0.559     4.9772     61.524    8.08994    8.06993 3.7606e+01     1.6061     1.7168    65.1031   996.7880  0.000e+00
      0.393    26.1488    26.1551     99.962 102.271725      0.559     4.9671     61.404    8.08918    8.06918 3.8451e+01     1.3305     1.7112    65.1949   996.7867  0.000e+00
      0.392    26.1530    26.1593     99.805 102.119020      0.558     4.9618     61.343    8.08856    8.06856 3.9978e+01     1.1312     1.6956    65.4495   996.7855  0.000e+00
      0.399    26.1567    26.1630     99.380 101.691454      0.567     4.9612     61.341    8.08803    8.06802 3.9180e+01     1.2987     1.7024    65.3370   996.7844  0.000e+00
      0.411    26.1578    26.1641     98.572 100.866889      0.584     4.9562     61.279    8.08789    8.06788 3.8363e+01     1.0231     1.6989    65.3948   996.7839  0.000e+00
      0.432    26.1362    26.1425     98.882 101.141747      0.614     4.9465     61.135    8.09105    8.07105 3.7229e+01     2.4010     1.7219    65.0202   996.7898  0.000e+00
      0.438    26.0986    26.1048    100.061 102.271742      0.623     4.9342     60.942    8.09655    8.07657 3.7623e+01     2.1381     1.7035    65.3192   996.8003  0.000e+00
      0.443    26.0845    26.0908    100.417 102.607700      0.630     4.9270     60.838    8.09860    8.07862 3.8832e+01     2.0046     1.6905    65.5325   996.8042  0.000e+00
      0.444    26.1186    26.1248     99.544 101.783087      0.631     4.9417     61.057    8.09362    8.07363 3.7331e+01     1.9007     1.6920    65.5073   996.7948  0.000e+00
      0.449    26.2374    26.2437     98.925 101.386029      0.639     4.9699     61.537    8.07622    8.05619 3.7348e+01     1.9792     1.6985    65.4022   996.7629  0.000e+00
      0.457    26.2849    26.2912     98.417 100.958464      0.650     4.9956     61.909    8.06930    8.04925 3.5872e+01     1.8520     1.6922    65.5043   996.7500  0.000e+00
      0.465    26.2758    26.2821     98.762 101.294398      0.661     5.0091     62.066    8.07061    8.05056 3.6712e+01     1.6612     1.6946    65.4658   996.7526  0.000e+00
      0.468    26.2714    26.2777     99.425 101.966278      0.665     5.0126     62.104    8.07124    8.05119 3.5651e+01     1.4873     1.7077    65.2511   996.7540  0.000e+00
      0.469    26.3054    26.3117     99.657 102.271674      0.667     5.0031     62.025    8.06628    8.04622 3.6169e+01     1.1990     1.6967    65.4303   996.7450  0.000e+00
      0.467    26.3421    26.3485     99.764 102.454908      0.664     4.9995     62.022    8.06092    8.04085 3.5602e+01     0.8577     1.7033    65.3237   996.7351  0.000e+00
      0.466    26.3573    26.3637     99.200 101.905169      0.662     4.9994     62.037    8.05871    8.03864 3.4124e+01     1.0718     1.7205    65.0424   996.7308  0.000e+00
      0.473    26.3459    26.3523     98.389 101.050062      0.673     5.0041     62.082    8.06039    8.04032 3.4692e+01     0.1878     1.7330    64.8395   996.7336  0.000e+00
      0.481    26.3294    26.3357     98.510 101.141684      0.684     4.9973     61.979    8.06280    8.04274 3.4931e+01     0.6500     1.7290    64.9047   996.7382  0.000e+00
      0.487    26.3190    26.3254     99.155 101.783021      0.692     4.9859     61.827    8.06430    8.04423 3.6153e+01     1.2965     1.7443    64.6574   996.7412  0.000e+00
      0.488    26.3317    26.3380     99.695 102.363288      0.694     4.9715     61.662    8.06244    8.04237 3.3813e+01     1.4174     1.7604    64.3968   996.7380  0.000e+00
      0.484    26.3500    26.3563     99.898 102.607612      0.689     4.9625     61.571    8.05976    8.03969 3.4510e+01     0.8980     1.7572    64.4486   996.7331  0.000e+00
      0.481    26.3648    26.3712     99.304 102.027329      0.684     4.9625     61.588    8.05762    8.03754 3.2934e+01     1.5806     1.7619    64.3731   996.7289  0.000e+00
      0.480    26.3700    26.3763     98.670 101.385986      0.683     4.9714     61.704    8.05688    8.03680 3.4070e+01     1.3071     1.7573    64.4472   996.7273  0.000e+00
      0.481    26.3670    26.3733     98.260 100.958438      0.684     4.9690     61.671    8.05732    8.03725 3.2641e+01     1.0888     1.7749    64.1644   996.7280  0.000e+00
      0.482    26.3612    26.3676     98.360 101.050057      0.686     4.9569     61.515    8.05816    8.03808 3.4101e+01     1.7036     1.7619    64.3731   996.7296  0.000e+00
      0.483    26.3608    26.3671     98.926 101.630307      0.687     4.9412     61.319    8.05822    8.03814 3.2077e+01     1.8265     1.7718    64.2132   996.7299  0.000e+00
      0.484    26.3785    26.3848     99.367 102.118946      0.689     4.9151     61.014    8.05562    8.03554 3.3138e+01     0.7878     1.7710    64.2265   996.7253  0.000e+00
      0.484    26.3989    26.4053     99.476 102.271643      0.689     4.8935     60.769    8.05265    8.03256 3.2158e+01     0.9574     1.7776    64.1214   996.7198  0.000e+00
      0.485    26.4092    26.4155     99.397 102.210558      0.690     4.8830     60.650    8.05116    8.03107 3.1207e+01     0.7348     1.7926    63.8816   996.7170  0.000e+00
      0.484    26.4120    26.4183     99.064 101.874611      0.689     4.8754     60.559    8.05076    8.03066 3.1509e+01     0.8069     1.7713    64.2221   996.7161  0.000e+00
      0.481    26.4085    26.4148     98.893 101.691371      0.684     4.8624     60.393    8.05127    8.03118 3.1458e+01     1.1270     1.7681    64.2739   996.7170  0.000e+00
      0.484    26.4032    26.4095     98.844 101.630293      0.689     4.8596     60.352    8.05204    8.03195 3.1315e+01     0.9764     1.7748    64.1658   996.7184  0.000e+00
      0.482    26.3988    26.4052     98.971 101.752455      0.686     4.8494     60.220    8.05268    8.03259 3.1086e+01     1.2478     1.7847    64.0074   996.7196  0.000e+00
      0.482    26.3979    26.4043     99.181 101.966237      0.686     4.8370     60.066    8.05280    8.03271 3.0753e+01     1.3326     1.7731    64.1925   996.7200  0.000e+00
      0.483    26.4009    26.4072     99.413 102.210561      0.687     4.8254     59.925    8.05237    8.03228 3.0472e+01     1.1100     1.7565    64.4605   996.7192  0.000e+00
      0.484    26.4058    26.4121     99.314 102.118937      0.689     4.8096     59.735    8.05166    8.03157 3.1029e+01     1.1015     1.7520    64.5330   996.7179  0.000e+00
      0.486    26.4106    26.4170     99.216 102.027314      0.692     4.7949     59.557    8.05095    8.03086 3.0795e+01     0.9849     1.7448    64.6485   996.7166  0.000e+00
      0.483    26.4139    26.4202     99.061 101.874610      0.687     4.7804     59.381    8.05049    8.03039 3.1136e+01     1.1248     1.7507    64.5538   996.7156  0.000e+00
      0.484    26.4145    26.4209     98.970 101.782989      0.689     4.7705     59.259    8.05039    8.03030 3.0894e+01     1.1609     1.7576    64.4427   996.7154  0.000e+00
      0.483    26.4135    26.4198     99.062 101.874610      0.687     4.7587     59.110    8.05054    8.03045 3.0859e+01     1.3071     1.7510    64.5493   996.7157  0.000e+00
      0.483    26.4128    26.4191     99.211 102.027313      0.687     4.7460     58.952    8.05064    8.03055 3.0222e+01     0.6669     1.7388    64.7462   996.7160  0.000e+00
      0.484    26.4132    26.4195     99.211 102.027313      0.689     4.7371     58.842    8.05058    8.03049 3.0633e+01     0.7560     1.7464    64.6233   996.7159  0.000e+00
      0.487    26.4153    26.4217     99.207 102.027312      0.693     4.7280     58.731    8.05027    8.03018 3.1236e+01     1.2224     1.7472    64.6100   996.7153  0.000e+00
      0.485    26.4180    26.4243     99.291 102.118933      0.690     4.7178     58.608    8.04989    8.02979 3.0774e+01     1.2584     1.7549    64.4857   996.7146  0.000e+00
      0.484    26.4204    26.4267     99.286 102.118932      0.689     4.7053     58.455    8.04953    8.02944 3.0180e+01     0.9807     1.7456    64.6367   996.7139  0.000e+00
      0.483    26.4223    26.4286     99.134 101.966229      0.687     4.6990     58.378    8.04926    8.02917 3.0070e+01     1.1164     1.7536    64.5064   996.7134  0.000e+00
      0.483    26.4234    26.4298     99.042 101.874607      0.687     4.6902     58.269    8.04909    8.02900 2.9389e+01     1.1800     1.7587    64.4249   996.7130  0.000e+00
      0.485    26.4235    26.4299     99.042 101.874607      0.690     4.6822     58.171    8.04908    8.02898 3.0111e+01     1.1227     1.7527    64.5212   996.7130  0.000e+00
      0.487    26.4233    26.4297     99.132 101.966228      0.693     4.6734     58.061    8.04911    8.02901 2.9335e+01     0.8153     1.7661    64.3050   996.7131  0.000e+00
      0.487    26.4233    26.4297     99.280 102.118931      0.693     4.6654     57.962    8.04910    8.02901 2.9234e+01     0.9150     1.7533    64.5123   996.7132  0.000e+00
      0.487    26.4247    26.4311     99.367 102.210553      0.693     4.6572     57.862    8.04890    8.02881 3.0347e+01     0.9340     1.7671    64.2902   996.7128  0.000e+00
      0.484    26.4270    26.4333     99.273 102.118930      0.689     4.6492     57.764    8.04858    8.02848 3.0111e+01     0.9764     1.7651    64.3213   996.7122  0.000e+00
      0.486    26.4288    26.4352     99.121 101.966227      0.692     4.6454     57.719    8.04831    8.02821 2.9884e+01     1.0061     1.7756    64.1525   996.7116  0.000e+00
      0.486    26.4287    26.4351     99.032 101.874605      0.692     4.6414     57.669    8.04833    8.02823 3.0409e+01     0.9892     1.7674    64.2843   996.7116  0.000e+00
      0.485    26.4273    26.4337     99.035 101.874606      0.690     4.6347     57.585    8.04853    8.02843 3.0063e+01     1.0082     1.7668    64.2946   996.7120  0.000e+00
      0.487    26.4257    26.4320     99.127 101.966228      0.693     4.6264     57.480    8.04877    8.02867 3.0612e+01     1.0104     1.7551    64.4827   996.7125  0.000e+00
      0.487    26.4254    26.4317     99.187 102.027309      0.693     4.6165     57.356    8.04881    8.02871 3.0823e+01     0.8662     1.7570    64.4516   996.7126  0.000e+00
      0.487    26.4266    26.4329     99.363 102.210552      0.693     4.6115     57.295    8.04863    8.02854 3.1000e+01     0.9637     1.7642    64.3361   996.7123  0.000e+00
      0.491    26.4285    26.4349     99.270 102.118929      0.698     4.6061     57.230    8.04835    8.02825 3.0788e+01     1.2245     1.7652    64.3198   996.7118  0.000e+00
      0.492    26.4305    26.4368     99.118 101.966226      0.699     4.6096     57.275    8.04807    8.02797 3.1408e+01     1.2944     1.7504    64.5582   996.7112  0.000e+00
      0.490    26.4312    26.4375     98.938 101.782984      0.696     4.5933     57.073    8.04797    8.02788 3.0340e+01     1.3919     1.7576    64.4427   996.7109  0.000e+00
      0.493    26.4300    26.4363     99.030 101.874605      0.701     4.5893     57.024    8.04814    8.02805 3.0718e+01     1.4534     1.7590    64.4205   996.7113  0.000e+00
      0.493    26.4278    26.4342     99.034 101.874606      0.701     4.5850     56.967    8.04846    8.02836 3.0326e+01     1.5128     1.7585    64.4279   996.7119  0.000e+00
      0.494    26.4262    26.4325     99.126 101.966227      0.702     4.5776     56.874    8.04870    8.02860 3.0015e+01     1.5340     1.7736    64.1851   996.7124  0.000e+00
      0.496    26.4257    26.4320     99.187 102.027309      0.706     4.5740     56.829    8.04877    8.02867 3.0682e+01     1.2520     1.7533    64.5123   996.7125  0.000e+00
      0.494    26.4270    26.4333     99.362 102.210552      0.702     4.5653     56.721    8.04858    8.02848 3.1221e+01     1.6082     1.7507    64.5538   996.7122  0.000e+00
      0.494    26.4293    26.4356     99.209 102.057848      0.703     4.5612     56.673    8.04824    8.02814 3.2018e+01     1.3877     1.7417    64.6989   996.7116  0.000e+00
      0.496    26.4310    26.4373     99.117 101.966226      0.706     4.5561     56.612    8.04800    8.02790 3.1646e+01     1.4047     1.7685    64.2665   996.7111  0.000e+00
      0.494    26.4308    26.4371     99.028 101.874605      0.702     4.5529     56.572    8.04803    8.02793 3.1437e+01     1.5403     1.7545    64.4931   996.7111  0.000e+00
      0.495    26.4289    26.4353     99.032 101.874605      0.704     4.5514     56.551    8.04830    8.02820 3.0965e+01     0.9616     1.7635    64.3480   996.7116  0.000e+00
      0.494    26.4263    26.4326     99.126 101.966227      0.702     4.5447     56.466    8.04868    8.02858 3.0852e+01     0.8450     1.7705    64.2354   996.7123  0.000e+00
      0.496    26.4256    26.4319     99.187 102.027309      0.706     4.5399     56.405    8.04878    8.02868 3.3108e+01     0.8577     1.7636    64.3465   996.7126  0.000e+00
      0.497    26.4261    26.4324     99.186 102.027308      0.707     4.5325     56.314    8.04871    8.02861 3.2949e+01     0.7751     1.7718    64.2147   996.7124  0.000e+00
      0.497    26.4275    26.4339     99.124 101.966227      0.707     4.5280     56.259    8.04850    8.02840 3.1365e+01     0.8132     1.7562    64.4649   996.7120  0.000e+00
      0.498    26.4287    26.4351     99.032 101.874606      0.709     4.5210     56.174    8.04833    8.02823 3.2417e+01     1.1079     1.7577    64.4412   996.7117  0.000e+00
      0.497    26.4291    26.4355     99.121 101.966227      0.707     4.5184     56.141    8.04827    8.02817 3.1960e+01     1.0549     1.7693    64.2547   996.7116  0.000e+00
      0.494    26.4288    26.4352     99.032 101.874606      0.702     4.5083     56.016    8.04831    8.02822 3.3481e+01     1.2732     1.7745    64.1703   996.7116  0.000e+00
      0.493    26.4288    26.4352     99.121 101.966227      0.701     4.5009     55.923    8.04831    8.02821 3.1887e+01     0.7051     1.7593    64.4146   996.7117  0.000e+00
      0.490    26.4295    26.4358     99.031 101.874605      0.698     4.4982     55.891    8.04821    8.02812 3.3146e+01     0.7242     1.7545    64.4931   996.7114  0.000e+00
      0.491    26.4295    26.4358     98.942 101.782985      0.698     4.4913     55.806    8.04822    8.02812 3.2165e+01     1.4958     1.7646    64.3302   996.7114  0.000e+00
      0.496    26.4292    26.4355     98.853 101.691364      0.705     4.4839     55.713    8.04826    8.02816 3.2306e+01     1.1651     1.7423    64.6885   996.7115  0.000e+00
      0.498    26.4271    26.4334     98.798 101.630285      0.709     4.4776     55.633    8.04857    8.02848 3.2836e+01     1.3347     1.7753    64.1584   996.7120  0.000e+00
      0.498    26.3761    26.3824     93.042  95.614834      0.709     4.4827     55.644    8.05611    8.03603 3.3697e+01     1.7184     1.7597    64.4087   996.7239  0.000e+00
      0.496    25.8593    25.8655     93.418  95.034917      0.705     4.6229     56.848    8.13197    8.11208 3.3108e+01     1.3495     1.7493    64.5760   996.8619  0.000e+00
      0.495    25.2781    25.2842     94.619  95.157217      0.704     5.3146     64.664    8.21878    8.19912 3.3720e+01     1.4916     1.7341    64.8218   997.0143  0.000e+00
      0.495    24.9458    24.9518     95.127  95.035199      0.704     6.3711     77.046    8.26917    8.24967 3.4407e+01     1.7163     1.7384    64.7522   997.1001  0.000e+00
      0.495    24.7881    24.7941     95.428  95.035248      0.704     7.4378     89.685    8.29326    8.27384 3.4391e+01     2.5070     1.7528    64.5197   997.1404  0.000e+00
      0.495    24.7138    24.7197     95.571  95.035271      0.704     8.3951    101.088    8.30466    8.28528 3.4771e+01     2.3120     1.7702    64.2399   997.1593  0.000e+00
      0.495    24.6809    24.6868     95.542  94.943691      0.704     9.1735    110.395    8.30972    8.29036 3.5930e+01     1.9898     1.7491    64.5789   997.1676  0.000e+00
      0.493    24.6663    24.6722     95.662  95.035285      0.701     9.7387    117.165    8.31196    8.29260 3.3875e+01     2.1848     1.7557    64.4723   997.1713  0.000e+00
      0.489    24.6566    24.6625     95.681  95.035288      0.696    10.0766    121.209    8.31345    8.29410 3.6527e+01     2.9416     1.7529    64.5182   997.1738  0.000e+00
      0.491    24.6500    24.6559     95.786  95.126881      0.699    10.1658    122.267    8.31447    8.29512 3.6194e+01     2.7105     1.7355    64.7995   997.1755  0.000e+00
      0.495    24.6492    24.6552     95.695  95.035291      0.704    10.0206    120.518    8.31458    8.29523 3.6294e+01     2.3629     1.7659    64.3095   997.1757  0.000e+00
      0.510    24.6501    24.6560     95.601  94.943700      0.726     9.7949    117.805    8.31446    8.29511 3.7084e+01     1.8498     1.7605    64.3953   997.1755  0.000e+00
      0.527    24.6501    24.6560     95.694  95.035291      0.749     9.5973    115.430    8.31445    8.29511 3.5938e+01     2.5176     1.7406    64.7166   997.1756  0.000e+00
      0.518    24.6456    24.6515     95.702  95.035292      0.736     9.4332    113.446    8.31515    8.29580 3.8779e+01     2.3247     1.7408    64.7137   997.1767  0.000e+00
      0.442    24.6392    24.6451     95.715  95.035293      0.629     9.3025    111.861    8.31613    8.29678 4.0439e+01     1.9134     1.7806    64.0726   997.1780  0.000e+00
      0.320    24.6510    24.6569     95.784  95.126879      0.455     9.1893    110.524    8.31431    8.29496 3.8770e+01     0.6839     1.7768    64.1333   997.1745  0.000e+00
      0.201    24.6750    24.6809     95.799  95.187931      0.286     9.1068    109.580    8.31062    8.29126 4.4351e+01     0.7963     1.7912    63.9038   997.1679  0.000e+00
      0.095    24.7032    24.7091     95.745  95.187922      0.135     9.0685    109.177    8.30628    8.28691 4.1008e+01     0.9934     1.7718    64.2132   997.1603  0.000e+00
      0.011    24.7120    24.7180     95.728  95.187918      0.016     9.0568    109.053    8.30492    8.28554 5.4285e+01     1.9219     1.7796    64.0888   997.1576  0.000e+00
     -0.061    24.7144    24.7204     95.723  95.187917     -0.087     9.0542    109.027    8.30455    8.28517 4.0644e+01     0.6881     1.7405    64.7181   997.1567  0.000e+00
     -0.124    24.7233    24.7292     95.768  95.248974     -0.176     9.0544    109.047    8.30319    8.28381 4.3566e+01     0.7517     1.7589    64.4220   997.1542  0.000e+00
     -0.145    24.7374    24.7433     95.771  95.279500     -0.206     9.0614    109.160    8.30104    8.28164 4.0190e+01     0.4465     1.7399    64.7285   997.1505  0.000e+00
     -0.165    24.7472    24.7532     95.660  95.187906     -0.234     9.0681    109.260    8.29952    8.28012 4.2181e+01    -0.1959     1.7367    64.7803   997.1479  0.000e+00
     -0.216    24.7485    24.7545     95.750  95.279496     -0.308     9.0763    109.362    8.29932    8.27992 4.0070e+01    -0.3612     1.7613    64.3835   997.1474  0.000e+00
     -0.257    24.7607    24.7667     95.880  95.432145     -0.365     9.0544    109.123    8.29745    8.27804 4.0402e+01    -0.1853     7.8893    13.9133   997.1441  0.000e+00
     -0.269    24.8017    24.8077     95.893  95.523724     -0.383     9.0240    108.839    8.29116    8.27174 4.3148e+01     1.1757    12.2272     4.7038   997.1337  0.000e+00
     -0.269    24.8356    24.8416     95.827  95.523714     -0.383     9.0002    108.620    8.28597    8.26653 9.7417e+02    -0.3612    11.0567     6.3029   997.1250  0.000e+00
     -0.258    24.8528    24.8587     95.702  95.432116     -0.367     8.9642    108.219    8.28335    8.26390 6.6840e+01    -0.3612    11.4389     5.7284   997.1207  0.000e+00
     -0.243    24.8536    24.8596     95.640  95.371055     -0.345     8.9288    107.794    8.28323    8.26377 4.5192e+01    -0.3612     3.8775    37.9321   997.1205  0.000e+00
     -0.233    24.8490    24.8549     95.710  95.432118     -0.331     8.8878    107.289    8.28393    8.26448 5.6635e+01     0.8514     2.9328    48.0373   997.1217  0.000e+00
     -0.233    24.8450    24.8510     95.564  95.279466     -0.331     8.8500    106.825    8.28455    8.26510 7.2321e+01     0.7263     1.8458    63.0361   997.1227  0.000e+00
     -0.239    24.8261    24.8320     95.693  95.371063     -0.341     8.8367    106.627    8.28744    8.26800 1.0418e+03     0.4486     1.6976    65.4155   997.1275  0.000e+00
     -0.256    24.8056    24.8116     95.640  95.279478     -0.364     8.8403    106.631    8.29057    8.27115 1.0252e+03     0.1560     7.3135    16.0676   997.1327  0.000e+00
     -0.266    24.7924    24.7983     95.819  95.432135     -0.378     8.8395    106.595    8.29260    8.27318 1.0234e+03    -0.2976    11.5693     5.5448   997.1360  0.000e+00
     -0.271    24.7861    24.7920     95.677  95.279484     -0.386     8.8160    106.299    8.29356    8.27415 1.0117e+03     0.2896    13.4402     3.4734   997.1376  0.000e+00
     -0.283    24.7826    24.7885     95.776  95.371076     -0.403     8.7870    105.942    8.29410    8.27469 1.0276e+03     0.3299    11.3540     5.8513   997.1384  0.000e+00
     -0.291    24.7960    24.8019     95.658  95.279481     -0.414     8.7476    105.493    8.29205    8.27262 1.0122e+03     0.7390    13.9875     3.0292   997.1350  0.000e+00
     -0.288    24.8119    24.8179     95.781  95.432129     -0.409     8.6947    104.887    8.28960    8.27018 1.0129e+03     0.6224     9.8834     8.4513   997.1310  0.000e+00
     -0.282    24.8234    24.8294     95.698  95.371064     -0.402     8.6241    104.057    8.28785    8.26841 8.4593e+02     1.3029    12.7097     4.1693   997.1280  0.000e+00
     -0.278    24.8357    24.8417     95.827  95.523713     -0.395     8.5372    103.032    8.28596    8.26652 9.3803e+02     2.0809     9.3921     9.5558   997.1250  0.000e+00
     -0.276    24.8712    24.8772     95.759  95.523702     -0.392     8.4459    101.997    8.28053    8.26107 1.0231e+03     1.2987    11.2472     6.0097   997.1159  0.000e+00
     -0.285    24.9048    24.9107     95.695  95.523692     -0.405     8.3349    100.719    8.27541    8.25593 1.0378e+03     1.0570    10.1254     7.9552   997.1073  0.000e+00
     -0.309    24.9235    24.9295     95.750  95.615279     -0.439     8.2019     99.147    8.27254    8.25306 1.0029e+03     0.5207     8.0151    13.4824   997.1024  0.000e+00
     -0.325    24.9349    24.9409     95.728  95.615275     -0.463     8.0558     97.401    8.27081    8.25132 1.0043e+03     0.5291     9.3288     9.7083   997.0994  0.000e+00
     -0.331    24.9402    24.9462     95.718  95.615273     -0.471     7.9274     95.858    8.27001    8.25051 9.8630e+02    -0.3612    10.7502     6.8048   997.0980  0.000e+00
     -0.325    24.9374    24.9434     95.877  95.767929     -0.463     7.7996     94.307    8.27043    8.25094 9.8834e+02    -0.3612    13.0738     3.8065   997.0988  0.000e+00
     -0.318    24.9386    24.9446     95.874  95.767929     -0.452     7.6915     93.003    8.27024    8.25075 9.9538e+02    -0.3379     9.5527     9.1797   997.0985  0.000e+00
     -0.296    24.9443    24.9503     95.802  95.706865     -0.421     7.6180     92.122    8.26938    8.24988 7.2255e+01     1.6951    10.6428     6.9899   997.0972  0.000e+00
     -0.256    24.9492    24.9552     95.854  95.767926     -0.364     7.5996     91.908    8.26863    8.24913 7.5005e+01     0.8980     2.6965    50.9601   997.0961  0.000e+00
     -0.215    24.9543    24.9603     95.691  95.615270     -0.306     7.5827     91.713    8.26785    8.24835 6.4331e+02     1.2499     1.8383    63.1546   997.0949  0.000e+00
     -0.167    24.9595    24.9655     95.773  95.706862     -0.238     7.5716     91.588    8.26705    8.24755 9.9447e+02     0.9595     1.7036    65.3178   997.0938  0.000e+00
     -0.107    24.9626    24.9686     95.828  95.767924     -0.152     7.5540     91.379    8.26658    8.24708 5.9577e+02     0.7835     1.6635    65.9766   997.0933  0.000e+00
     -0.052    24.9654    24.9714     95.914  95.859517     -0.074     7.5366     91.174    8.26616    8.24665 2.4399e+02     1.0634     1.6590    66.0507   997.0929  0.000e+00
     -0.016    24.9697    24.9757     95.815  95.767922     -0.022     7.5400     91.223    8.26551    8.24600 2.2110e+02     0.1030     1.6525    66.1588   997.0919  0.000e+00
      0.005    24.9759    24.9819     95.803  95.767920      0.008     7.5124     90.899    8.26456    8.24505 2.6238e+02     0.4592     1.6582    66.0640   997.0904  0.000e+00
      0.029    24.9800    24.9860     95.795  95.767919      0.042     7.4885     90.617    8.26393    8.24442 1.5708e+02     1.2393     1.6941    65.4732   997.0895  0.000e+00
      0.060    24.9803    24.9863     95.794  95.767920      0.086     7.4790     90.502    8.26389    8.24438 8.9477e+01     1.0930     1.6961    65.4407   997.0895  0.000e+00
      0.087    24.9808    24.9868     95.763  95.737389      0.123     7.4699     90.393    8.26382    8.24431 7.5005e+01     1.1545     1.6942    65.4717   997.0895  0.000e+00
      0.099    24.9806    24.9866     95.733  95.706858      0.140     7.4445     90.085    8.26385    8.24434 7.1171e+02     1.4598     1.7044    65.3044   997.0896  0.000e+00
      0.114    24.9804    24.9864     95.794  95.767920      0.162     7.3946     89.481    8.26388    8.24436 1.3839e+03     1.6082     1.6754    65.7797   997.0897  0.000e+00
      0.128    24.9801    24.9861     95.733  95.706858      0.182     7.3238     88.623    8.26392    8.24441 6.2199e+01     1.0655     1.6674    65.9115   997.0898  0.000e+00
      0.136    24.9831    24.9891     95.728  95.706857      0.193     7.2594     87.850    8.26347    8.24395 7.2388e+01     0.7645     1.6672    65.9145   997.0891  0.000e+00
      0.140    24.9915    24.9975     95.773  95.767917      0.200     7.1780     86.878    8.26219    8.24267 4.3736e+01     1.0082     1.6900    65.5399   997.0870  0.000e+00
      0.134    24.9954    25.0014     95.765  95.767916      0.190     7.0966     85.899    8.26159    8.24207 4.8143e+01     1.9113     1.6726    65.8256   997.0860  0.000e+00
      0.130    24.9975    25.0035     95.761  95.767915      0.186     7.0100     84.853    8.26127    8.24175 4.7149e+01     2.7423     1.6665    65.9263   997.0854  0.000e+00
      0.157    24.9977    25.0037     95.700  95.706853      0.223     6.9467     84.087    8.26124    8.24172 4.7420e+01     1.9537     1.6732    65.8167   997.0854  0.000e+00
      0.200    24.9956    25.0016     95.856  95.859510      0.284     6.9288     83.868    8.26156    8.24204 7.5005e+02     1.9071     1.6822    65.6687   997.0862  0.000e+00
      0.230    24.9970    25.0030     96.006  96.012167      0.328     6.9661     84.322    8.26135    8.24183 4.6346e+02     1.6400     1.6971    65.4244   997.0861  0.000e+00
      0.268    25.0120    25.0180     95.581  95.615256      0.381     7.0013     84.771    8.25907    8.23954 3.7289e+02     2.0004     1.6968    65.4288   997.0822  0.000e+00
      0.320    25.0103    25.0163     95.737  95.767913      0.456     7.0568     85.440    8.25932    8.23980 3.1129e+02     1.1376     1.6950    65.4584   997.0830  0.000e+00
      0.378    24.9770    24.9830     95.892  95.859517      0.537     7.1948     87.058    8.26438    8.24487 4.7486e+02     0.7115     1.6910    65.5251   997.0918  0.000e+00
      0.422    24.9774    24.9834     95.739  95.706861      0.600     7.3821     89.325    8.26433    8.24482 4.8642e+02     0.7814     1.6872    65.5872   997.0918  0.000e+00
      0.456    24.9788    24.9848     95.736  95.706861      0.648     7.6305     92.333    8.26412    8.24461 3.7025e+02     0.6203     1.6963    65.4377   997.0916  0.000e+00
      0.490    24.9591    24.9651     95.774  95.706868      0.696     7.8431     94.871    8.26712    8.24762 8.8378e+02     0.7687     1.7169    65.1016   997.0968  0.000e+00
      0.526    24.9451    24.9511     95.862  95.767935      0.748     7.9690     96.369    8.26925    8.24975 5.2607e+02     1.3750     1.7665    64.2991   997.1006  0.000e+00
      0.578    24.9308    24.9368     95.736  95.615284      0.821     8.0121     96.865    8.27144    8.25195 3.0222e+02     1.5255     1.7375    64.7670   997.1045  0.000e+00
      0.631    24.9004    24.9064     95.886  95.706887      0.898     8.0011     96.677    8.27607    8.25660 2.4478e+02     2.0915     1.7315    64.8647   997.1125  0.000e+00
      0.690    24.8604    24.8664     95.688  95.432122      0.981     7.9388     95.854    8.28219    8.26274 2.7537e+02     2.8038     1.7398    64.7300   997.1229  0.000e+00
      0.748    24.8188    24.8247     95.952  95.615321      1.064     7.8361     94.542    8.28855    8.26912 2.8961e+02     2.6724     1.7197    65.0557   997.1339  0.000e+00
      0.809    24.7875    24.7934     95.767  95.371085      1.151     7.7308     93.217    8.29335    8.27393 6.5356e+02     1.6485     1.7463    64.6248   997.1420  0.000e+00
      0.883    24.7552    24.7611     95.737  95.279504      1.256     7.6846     92.604    8.29830    8.27890 2.5201e+02     1.6718     1.7552    64.4812   997.1505  0.000e+00
      0.960    24.7284    24.7343     95.696  95.187921      1.365     7.6894     92.616    8.30241    8.28303 3.3620e+02     1.5382     1.7519    64.5345   997.1577  0.000e+00
      1.036    24.7056    24.7115     95.740  95.187929      1.473     7.7167     92.906    8.30592    8.28654 1.9090e+02     1.6908     1.7617    64.3761   997.1638  0.000e+00
      1.089    24.6862    24.6921     95.624  95.035285      1.550     7.7503     93.277    8.30890    8.28953 9.9927e+02     1.6103     1.7541    64.4990   997.1689  0.000e+00
      1.126    24.6710    24.6769     95.746  95.126880      1.601     7.7811     93.621    8.31123    8.29188 1.2225e+03     1.6485     1.7585    64.4279   997.1730  0.000e+00
      1.165    24.6536    24.6595     95.687  95.035295      1.657     7.8036     93.862    8.31392    8.29457 2.5862e+02     1.8901     1.7680    64.2754   997.1775  0.000e+00
      1.215    24.6397    24.6456     95.714  95.035300      1.728     7.8377     94.248    8.31606    8.29671 7.1646e+02     1.6908     1.7766    64.1362   997.1813  0.000e+00
      1.282    24.6290    24.6349     95.642  94.943714      1.823     7.9143     95.150    8.31770    8.29837 2.6244e+02     1.4237     1.7591    64.4175   997.1843  0.000e+00
      1.344    24.6207    24.6266     95.597  94.882657      1.912     8.0252     96.469    8.31898    8.29965 1.9921e+02     1.4025     1.7633    64.3509   997.1866  0.000e+00
      1.405    24.6118    24.6177     95.614  94.882660      1.998     8.1835     98.356    8.32036    8.30103 4.3010e+02     1.6569     1.7579    64.4368   997.1891  0.000e+00
      1.467    24.6008    24.6067     95.696  94.943724      2.087     8.3642    100.507    8.32204    8.30272 5.1711e+02     2.1827     1.7688    64.2621   997.1922  0.000e+00
      1.531    24.5889    24.5948     95.719  94.943728      2.178     8.5187    102.341    8.32388    8.30457 2.1753e+02     2.1254     1.7877    63.9585   997.1955  0.000e+00
      1.606    24.5789    24.5848     95.585  94.791083      2.284     8.6367    103.739    8.32542    8.30611 4.7150e+02     1.8308     1.7749    64.1644   997.1983  0.000e+00
      1.676    24.5685    24.5744     95.697  94.882676      2.384     8.7073    104.566    8.32703    8.30773 3.6170e+02     1.7438     1.7834    64.0281   997.2013  0.000e+00
      1.742    24.5586    24.5645     95.624  94.791090      2.478     8.7562    105.135    8.32855    8.30925 3.2987e+02     1.8350     1.7674    64.2843   997.2040  0.000e+00
      1.805    24.5492    24.5551     95.642  94.791094      2.567     8.7532    105.081    8.33001    8.31072 1.6922e+02     1.8435     1.8065    63.6595   997.2067  0.000e+00
      1.863    24.5370    24.5429     95.666  94.791098      2.650     8.7396    104.893    8.33190    8.31261 4.0718e+02     1.8668     1.9066    62.0856   997.2101  0.000e+00
      1.914    24.5247    24.5306     95.535  94.638454      2.723     8.7613    105.129    8.33380    8.31452 2.9796e+02     1.8096     1.8845    62.4305   997.2133  0.000e+00
      1.966    24.5120    24.5179     95.560  94.638459      2.796     8.7827    105.361    8.33576    8.31648 2.6310e+02     1.7714     1.9238    61.8190   997.2168  0.000e+00
      2.040    24.4961    24.5020     95.591  94.638464      2.901     8.7798    105.296    8.33822    8.31896 2.3333e+02     1.7693     1.8467    63.0228   997.2211  0.000e+00
      2.125    24.4785    24.4844     95.532  94.546882      3.023     8.7703    105.147    8.34095    8.32169 2.9208e+02     1.8392     1.7817    64.0548   997.2259  0.000e+00
      2.181    24.4610    24.4669     95.658  94.638476      3.103     8.7695    105.104    8.34365    8.32441 2.3607e+02     1.8838     1.7678    64.2784   997.2306  0.000e+00
      2.231    24.4442    24.4501     95.691  94.638482      3.173     8.7708    105.086    8.34625    8.32701 3.5971e+02     2.0640     1.7682    64.2710   997.2350  0.000e+00
      2.276    24.4274    24.4333     95.631  94.546899      3.237     8.7630    104.961    8.34886    8.32963 1.7346e+02     2.1381     1.7795    64.0903   997.2394  0.000e+00
      2.322    24.4150    24.4208     95.748  94.638492      3.303     8.7568    104.862    8.35079    8.33156 2.6589e+02     2.1169     1.7881    63.9526   997.2428  0.000e+00
      2.363    24.4043    24.4101     95.583  94.455319      3.361     8.7573    104.847    8.35245    8.33323 1.8606e+02     2.1678     1.7804    64.0755   997.2456  0.000e+00
      2.413    24.3964    24.4023     95.691  94.546910      3.432     8.7782    105.082    8.35366    8.33445 3.0410e+02     2.1721     1.7590    64.4205   997.2478  0.000e+00
      2.460    24.3876    24.3934     95.708  94.546913      3.500     8.8093    105.438    8.35504    8.33583 1.9528e+02     2.2717     1.7563    64.4634   997.2502  0.000e+00
      2.501    24.3786    24.3845     95.633  94.455328      3.557     8.8377    105.760    8.35643    8.33723 2.2742e+02     2.2823     1.7743    64.1732   997.2526  0.000e+00
      2.547    24.3706    24.3764     95.741  94.546919      3.623     8.8391    105.761    8.35768    8.33848 1.7386e+02     2.4583     1.8043    63.6935   997.2549  0.000e+00
      2.597    24.3638    24.3697     95.569  94.363746      3.693     8.8470    105.841    8.35873    8.33953 2.3307e+02     2.5176     1.8078    63.6387   997.2567  0.000e+00
      2.639    24.3553    24.3612     95.523  94.302691      3.754     8.8645    106.034    8.36005    8.34086 1.7700e+02     2.5515     1.8155    63.5158   997.2590  0.000e+00
      2.683    24.3399    24.3458     95.615  94.363754      3.817     8.8912    106.323    8.36244    8.34326 1.9685e+02     2.6151     1.8080    63.6358   997.2631  0.000e+00
      2.735    24.3187    24.3245     95.501  94.211116      3.890     8.9268    106.706    8.36575    8.34658 1.9559e+02     2.7148     1.8057    63.6728   997.2686  0.000e+00
      2.788    24.2856    24.2914     95.411  94.058483      3.965     8.9466    106.878    8.37091    8.35176 2.0238e+02     2.7741     1.7844    64.0118   997.2771  0.000e+00
      2.837    24.2456    24.2514     95.488  94.058495      4.035     8.9423    106.746    8.37714    8.35801 1.9248e+02     2.8483     1.7715    64.2191   997.2873  0.000e+00
      2.889    24.2107    24.2165     95.463  93.966920      4.109     8.9379    106.624    8.38258    8.36347 2.0336e+02     2.8844     1.8108    63.5914   997.2962  0.000e+00
      2.945    24.1773    24.1831     95.621  94.058517      4.189     8.9255    106.410    8.38781    8.36872 1.6309e+02     2.8907     1.8072    63.6476   997.3048  0.000e+00
      3.000    24.1288    24.1346     95.467  93.814304      4.267     8.9148    106.187    8.39540    8.37634 2.2452e+02     2.7932     1.8263    63.3456   997.3170  0.000e+00
      3.039    24.0458    24.0515     95.442  93.631161      4.323     8.9153    106.028    8.40842    8.38940 1.3857e+02     2.7296     1.8248    63.3693   997.3378  0.000e+00
      3.069    23.9568    23.9625     95.459  93.478549      4.365     8.9072    105.755    8.42242    8.40345 1.6837e+02     2.7572     1.8322    63.2523   997.3599  0.000e+00
      3.118    23.8753    23.8811     95.369  93.234353      4.435     8.9122    105.654    8.43527    8.41635 1.4567e+02     2.8356     1.8299    63.2878   997.3801  0.000e+00
      3.182    23.8059    23.8116     95.254  92.990156      4.526     8.9506    105.971    8.44625    8.42737 1.6630e+02     2.8886     1.7921    63.8890   997.3973  0.000e+00
      3.250    23.7294    23.7351     94.809  92.410173      4.623     9.0244    106.692    8.45838    8.43955 1.2913e+02     2.9077     1.7727    64.1999   997.4162  0.000e+00
      3.316    23.6377    23.6434     94.391  91.830211      4.717     9.1519    108.013    8.47297    8.45419 1.5440e+02     3.1599     1.7601    64.4013   997.4387  0.000e+00
      3.369    23.5207    23.5263     94.021  91.250273      4.792     9.3073    109.606    8.49164    8.47293 1.3766e+02     3.2214     1.7625    64.3628   997.4672  0.000e+00
      3.419    23.4054    23.4110     93.993  91.006113      4.864     9.4798    111.395    8.51011    8.49147 1.4816e+02     3.2681     1.7636    64.3465   997.4952  0.000e+00
      3.475    23.3045    23.3101     93.937  90.761952      4.943     9.6610    113.308    8.52633    8.50775 1.2136e+02     3.3825     1.7860    63.9867   997.5197  0.000e+00
      3.524    23.2156    23.2212     93.762  90.426220      5.012     9.8162    114.934    8.54066    8.52214 1.3273e+02     3.5606     1.7421    64.6929   997.5412  0.000e+00
      3.575    23.1227    23.1283     93.594  90.090494      5.085     9.8941    115.643    8.55569    8.53723 1.1731e+02     3.8362     1.7216    65.0246   997.5635  0.000e+00
      3.646    23.0096    23.0151     93.497  89.785302      5.185     9.8750    115.174    8.57405    8.55566 1.2586e+02     3.8743     1.7681    64.2739   997.5907  0.000e+00
      3.737    22.8924    22.8979     93.375  89.449594      5.315     9.7459    113.415    8.59314    8.57483 1.1103e+02     3.9061     1.7481    64.5952   997.6187  0.000e+00
      3.812    22.7603    22.7657     93.442  89.266503      5.421     9.5346    110.677    8.61477    8.59654 1.2798e+02     4.2008     1.7456    64.6352   997.6502  0.000e+00
      3.870    22.6039    22.6093     93.236  88.778210      5.504     9.2534    107.093    8.64048    8.62236 1.0758e+02     4.3407     1.7814    64.0592   997.6869  0.000e+00
      3.941    22.4170    22.4224     93.250  88.442538      5.606     8.9356    103.047    8.67139    8.65340 1.0817e+02     4.5612     1.7973    63.8060   997.7306  0.000e+00
      4.015    22.2115    22.2169     93.333  88.137396      5.710     8.6246     99.069    8.70561    8.68775 1.1098e+02     4.6375     1.8263    63.3456   997.7782  0.000e+00
      4.085    21.9986    22.0038     93.301  87.710183      5.810     8.3701     95.753    8.74133    8.72362 9.6439e+01     4.9216     1.8933    62.2928   997.8271  0.000e+00
      4.158    21.7960    21.8013     93.086  87.130384      5.914     8.1459     92.826    8.77555    8.75798 1.0299e+02     5.1230     1.9131    61.9849   997.8731  0.000e+00
      4.230    21.5441    21.5493     92.803  86.398026      6.017     7.9546     90.204    8.81845    8.80106 9.1112e+01     5.3328     1.9539    61.3556   997.9296  0.000e+00
      4.298    21.1799    21.1850     92.742  85.665726      6.114     7.8411     88.289    8.88113    8.86401 9.3395e+01     5.7314     1.9246    61.8072   998.0102  0.000e+00
      4.369    20.7777    20.7827     92.757  84.933461      6.214     7.8127     87.281    8.95129    8.93445 8.4322e+01     6.2656     1.9493    61.4267   998.0976  0.000e+00
      4.435    20.3980    20.4029     92.895  84.353785      6.307     7.8423     86.958    9.01845    9.00190 8.2185e+01     6.9991     2.0188    60.3680   998.1786  0.000e+00
      4.505    20.0683    20.0731     92.457  83.346927      6.407     7.9067     87.102    9.07750    9.06120 8.0323e+01     7.8195     1.9865    60.8581   998.2476  0.000e+00
      4.581    19.7548    19.7595     92.390  82.706252      6.515     8.0083     87.673    9.13431    9.11824 7.4987e+01     8.8497     2.1161    58.9185   998.3124  0.000e+00
      4.653    19.4292    19.4338     91.762  81.546920      6.618     8.1347     88.479    9.19400    9.17817 7.0263e+01     9.9924     2.1380    58.5957   998.3782  0.000e+00
      4.729    19.0752    19.0798     91.496  80.662237      6.726     8.3333     89.996    9.25969    9.24413 6.6321e+01    11.1774     2.1785    58.0064   998.4487  0.000e+00
      4.807    18.7379    18.7424     91.330  79.899618      6.837     8.5899     92.136    9.32306    9.30774 6.5791e+01    12.3179     2.2561    56.8915   998.5147  0.000e+00
      4.880    18.4100    18.4144     90.790  78.831960      6.942     8.8119     93.889    9.38544    9.37037 6.2499e+01    13.1023     2.2410    57.1062   998.5775  0.000e+00
      4.950    18.0704    18.0748     90.762  78.191427      7.040     9.0039     95.271    9.45082    9.43600 6.2256e+01    13.9651     2.2334    57.2158   998.6415  0.000e+00
      5.006    17.7466    17.7509     90.665  77.520405      7.120     9.0813     95.453    9.51393    9.49935 5.6609e+01    14.5989     2.3008    56.2593   998.7012  0.000e+00
      5.082    17.4596    17.4638     90.919  77.215438      7.228     9.1012     95.096    9.57052    9.55613 5.3409e+01    15.4193     2.3833    55.1103   998.7535  0.000e+00
      5.152    17.2182    17.2223     91.150  76.971470      7.328     9.0246     93.825    9.61857    9.60436 5.0493e+01    16.7888     2.4662    53.9806   998.7968  0.000e+00
      5.210    16.9993    17.0034     90.718  76.208952      7.410     8.8317     91.401    9.66252    9.64846 5.1110e+01    18.5016     2.6506    51.5479   998.8352  0.000e+00
      5.259    16.7657    16.7697     90.933  75.964993      7.481     8.5572     88.130    9.70983    9.69593 4.6378e+01    21.7006     2.9678    47.6183   998.8758  0.000e+00
      5.319    16.5526    16.5565     90.923  75.568524      7.565     8.1787     83.855    9.75336    9.73961 4.5535e+01    24.8020     3.1675    45.2997   998.9122  0.000e+00
      5.384    16.3716    16.3756     91.025  75.324559      7.657     7.7042     78.690    9.79059    9.77695 4.2161e+01    28.0157     3.2532    44.3387   998.9429  0.000e+00
      5.457    16.2071    16.2110     90.797  74.836589      7.762     7.1744     73.024    9.82467    9.81115 3.9587e+01    30.4600     3.3138    43.6725   998.9704  0.000e+00
      5.520    15.9704    15.9742     90.987  74.562145      7.851     6.5883     66.723    9.87407    9.86070 3.6957e+01    32.4696     3.4070    42.6671   999.0095  0.000e+00
      5.582    15.7006    15.7043     91.403  74.409712      7.940     5.8957     59.367    9.93092    9.91772 3.5512e+01    34.7379     3.4632    42.0719   999.0532  0.000e+00
      5.643    15.4416    15.4453     91.687  74.165778      8.026     5.1176     51.248    9.98605    9.97301 3.2269e+01    36.7222     3.5085    41.5981   999.0944  0.000e+00
      5.715    15.2098    15.2134     91.912  73.921841      8.129     4.2989     42.835   10.03586   10.02296 2.9666e+01    39.4526     3.5618    41.0473   999.1306  0.000e+00
      5.787    15.0051    15.0087     92.077  73.677900      8.231     3.4947     34.669   10.08021   10.06743 2.7957e+01    41.2227     3.4234    42.4924   999.1621  0.000e+00
      5.857    14.7847    14.7882     92.358  73.494962      8.331     2.7337     26.990   10.12836   10.11571 2.6656e+01    43.3574     3.3053    43.7657   999.1955  0.000e+00
      5.916    14.5632    14.5667     92.490  73.190033      8.415     2.0582     20.224   10.17718   10.16465 2.5497e+01    44.4895     3.2201    44.7074   999.2284  0.000e+00
      5.972    14.3316    14.3351     92.608  72.854613      8.495     1.4839     14.507   10.22866   10.21625 2.4494e+01    44.8689     3.0272    46.9165   999.2621  0.000e+00
      6.041    14.1052    14.1086     92.598  72.427706      8.592     1.0458     10.173   10.27946   10.26717 2.2395e+01    43.8429     3.0044    47.1845   999.2944  0.000e+00
      6.106    13.8775    13.8808     92.749  72.122793      8.685     0.7196      6.966   10.33101   10.31883 2.1833e+01    42.5328     2.9546    47.7753   999.3264  0.000e+00
      6.172    13.6266    13.6298     93.351  72.122853      8.779     0.5154      4.961   10.38832   10.37627 2.0210e+01    41.4177     3.0247    46.9461   999.3610  0.000e+00
      6.228    13.3754    13.3786     93.645  71.878941      8.859     0.3872      3.706   10.44628   10.43434 1.9389e+01    40.3790     3.1745    45.2197   999.3947  0.000e+00
      6.289    13.1455    13.1486     93.889  71.635028      8.945     0.3060      2.914   10.49984   10.48800 1.9011e+01    38.8739     3.1326    45.6965   999.4250  0.000e+00
      6.348    12.9493    12.9524     93.933  71.299623      9.029     0.2900      2.750   10.54595   10.53418 1.8419e+01    37.7100     3.0238    46.9565   999.4502  0.000e+00
      6.405    12.7846    12.7877     93.899  70.964216      9.110     0.2905      2.744   10.58491   10.57321 1.7418e+01    35.8784     2.9131    48.2742   999.4711  0.000e+00
      6.458    12.6389    12.6420     93.938  70.720293      9.185     0.3097      2.917   10.61961   10.60797 1.6194e+01    34.7464     2.8775    48.7051   999.4893  0.000e+00
      6.524    12.5109    12.5139     94.056  70.567851      9.279     0.3375      3.169   10.65028   10.63868 1.5271e+01    34.0892     2.8749    48.7377   999.5052  0.000e+00
      6.602    12.3792    12.3822     94.183  70.415411      9.390     0.3703      3.466   10.68197   10.67041 1.4607e+01    33.2879     2.8081    49.5580   999.5213  0.000e+00
      6.682    12.2479    12.2509     93.819  69.897050      9.504     0.4155      3.878   10.71374   10.70223 1.3606e+01    31.8464     2.8209    49.3995   999.5371  0.000e+00
      6.755    12.1066    12.1095     93.643  69.500675      9.607     0.4669      4.344   10.74814   10.73668 1.3041e+01    30.3391     2.8405    49.1582   999.5538  0.000e+00
      6.823    11.9507    11.9536     93.914  69.409233      9.704     0.5213      4.833   10.78629   10.77487 1.2267e+01    28.6771     2.8613    48.9035   999.5721  0.000e+00
      6.885    11.7969    11.7997     93.188  68.585986      9.793     0.5617      5.189   10.82420   10.81282 1.1872e+01    27.5812     2.8737    48.7525   999.5894  0.000e+00
      6.940    11.6549    11.6577     93.092  68.250617      9.871     0.6017      5.541   10.85938   10.84804 1.1229e+01    26.6802     2.8162    49.4573   999.6053  0.000e+00
      6.992    11.5349    11.5377     93.398  68.250644      9.945     0.6390      5.869   10.88927   10.87796 1.0743e+01    25.4528     2.8285    49.3062   999.6188  0.000e+00
      7.056    11.4413    11.4440     93.638  68.250665     10.036     0.6676      6.118   10.91269   10.90140 1.0248e+01    24.2275     2.7840    49.8570   999.6292  0.000e+00
      7.111    11.3667    11.3694     93.620  68.098229     10.114     0.6893      6.305   10.93142   10.92015 9.6284e+00    23.5597     2.7472    50.3190   999.6374  0.000e+00
      7.158    11.3040    11.3067     93.572  67.945790     10.181     0.6913      6.314   10.94721   10.93595 9.4470e+00    22.8623     2.6861    51.0934   999.6442  0.000e+00
      7.207    11.2528    11.2555     93.452  67.762861     10.251     0.6782      6.188   10.96014   10.94889 8.9682e+00    22.1606     2.6353    51.7463   999.6498  0.000e+00
      7.254    11.2085    11.2112     93.482  67.701891     10.318     0.6619      6.033   10.97132   10.96008 8.5390e+00    21.9486     2.6055    52.1328   999.6546  0.000e+00
      7.300    11.1683    11.1710     93.333  67.518961     10.382     0.6364      5.795   10.98152   10.97029 8.1678e+00    22.2708     2.6270    51.8529   999.6590  0.000e+00
      7.347    11.1325    11.1352     93.215  67.366521     10.449     0.6126      5.574   10.99060   10.97938 8.0011e+00    22.5761     2.6638    51.3791   999.6629  0.000e+00
      7.396    11.1009    11.1036     93.296  67.366528     10.520     0.5839      5.309   10.99862   10.98741 7.5851e+00    23.1506     2.6524    51.5257   999.6664  0.000e+00
      7.455    11.0674    11.0701     93.129  67.183599     10.604     0.5562      5.053   11.00715   10.99594 7.4218e+00    23.0743     2.7099    50.7898   999.6700  0.000e+00
      7.519    11.0307    11.0333     93.224  67.183608     10.695     0.5382      4.886   11.01651   11.00531 6.9845e+00    22.7520     2.7359    50.4611   999.6741  0.000e+00
      7.580    10.9915    10.9942     93.241  67.122638     10.781     0.5259      4.770   11.02649   11.01530 6.8044e+00    22.1627     2.7773    49.9414   999.6783  0.000e+00
      7.632    10.9531    10.9557     93.213  67.031180     10.856     0.5218      4.728   11.03632   11.02513 6.7115e+00    20.9056     2.8347    49.2293   999.6825  0.000e+00
      7.685    10.9163    10.9189     93.309  67.031188     10.931     0.5211      4.718   11.04574   11.03456 6.3962e+00    19.7100     2.8376    49.1937   999.6864  0.000e+00
      7.741    10.8823    10.8849     93.525  67.122663     11.010     0.5165      4.673   11.05444   11.04326 6.0194e+00    18.9235     2.8751    48.7347   999.6902  0.000e+00
      7.788    10.8504    10.8530     93.948  67.366585     11.078     0.5117      4.626   11.06261   11.05144 5.9878e+00    17.9780     2.9349    48.0122   999.6937  0.000e+00
      7.830    10.8210    10.8236     94.111  67.427571     11.137     0.5058      4.569   11.07017   11.05900 5.9006e+00    17.5456     2.9535    47.7886   999.6969  0.000e+00
      7.877    10.7945    10.7971     94.308  67.519046     11.204     0.5071      4.578   11.07698   11.06582 5.7091e+00    16.6446     3.0442    46.7181   999.6998  0.000e+00
      7.930    10.7689    10.7715     94.375  67.519052     11.279     0.4980      4.493   11.08356   11.07240 5.5301e+00    15.5189     3.1474    45.5277   999.7026  0.000e+00
      7.984    10.7426    10.7452     94.317  67.427589     11.356     0.4888      4.407   11.09036   11.07921 5.3213e+00    14.6773     3.1608    45.3752   999.7054  0.000e+00
      8.033    10.7140    10.7165     94.307  67.366617     11.426     0.4815      4.339   11.09774   11.08660 5.0620e+00    13.8357     3.3387    43.4015   999.7084  0.000e+00
      8.081    10.6831    10.6856     94.389  67.366624     11.493     0.4867      4.382   11.10573   11.09459 4.9428e+00    13.1616     3.5709    40.9540   999.7117  0.000e+00
      8.126    10.6521    10.6547     94.343  67.275162     11.557     0.5110      4.598   11.11374   11.10260 4.8176e+00    12.3836     3.8263    38.4207   999.7149  0.000e+00
      8.168    10.6239    10.6264     94.289  67.183701     11.618     0.5034      4.526   11.12106   11.10992 4.6772e+00    12.1059     4.1210    35.6919   999.7178  0.000e+00
      8.206    10.5943    10.5969     94.367  67.183707     11.671     0.4928      4.428   11.12871   11.11758 4.5058e+00    11.9533     4.3244    33.9225   999.7208  0.000e+00
      8.246    10.5663    10.5688     94.356  67.122735     11.729     0.4645      4.171   11.13601   11.12488 4.3926e+00    11.8494     4.4361    32.9882   999.7237  0.000e+00
      8.291    10.5376    10.5401     94.175  66.939808     11.793     0.4605      4.132   11.14348   11.13235 4.2823e+00    11.6586     4.3496    33.7093   999.7266  0.000e+00
      8.341    10.5054    10.5080     93.917  66.695905     11.863     0.4349      3.900   11.15185   11.14072 3.9841e+00    11.3321     4.0545    36.2900   999.7298  0.000e+00
      8.388    10.4700    10.4725     93.796  66.543471     11.931     0.4188      3.752   11.16110   11.14998 3.9324e+00    11.2537     3.8611    38.0875   999.7333  0.000e+00
      8.438    10.4336    10.4361     93.763  66.452014     12.001     0.3950      3.536   11.17060   11.15948 3.7477e+00    10.7958     3.6302    40.3514   999.7370  0.000e+00
      8.487    10.3990    10.4015     93.855  66.452022     12.071     0.3732      3.338   11.17964   11.16853 3.6510e+00    10.3400     3.3465    43.3171   999.7405  0.000e+00
      8.530    10.3651    10.3675     94.074  66.543494     12.132     0.3841      3.433   11.18852   11.17741 3.6128e+00    10.1302     3.0922    46.1599   999.7439  0.000e+00
      8.569    10.3324    10.3349     94.506  66.787410     12.188     0.3791      3.386   11.19706   11.18595 3.4265e+00    10.2234     2.8963    48.4771   999.7473  0.000e+00
      8.617    10.3057    10.3082     95.053  67.122794     12.256     0.3777      3.371   11.20405   11.19294 3.3782e+00    10.3019     2.7638    50.1102   999.7501  0.000e+00
      8.664    10.2833    10.2857     95.459  67.366715     12.323     0.3710      3.310   11.20994   11.19884 3.2128e+00     9.7571     2.6987    50.9320   999.7526  0.000e+00
      8.712    10.2626    10.2650     95.731  67.519168     12.392     0.3661      3.265   11.21537   11.20428 3.1243e+00     9.6871     2.6293    51.8233   999.7548  0.000e+00
      8.768    10.2418    10.2443     95.917  67.610643     12.471     0.3650      3.253   11.22083   11.20973 3.0056e+00     9.9033     2.6466    51.5997   999.7570  0.000e+00
      8.832    10.2226    10.2250     96.099  67.702118     12.562     0.3560      3.171   11.22590   11.21480 2.8591e+00     9.7507     2.6798    51.1733   999.7591  0.000e+00
      8.902    10.2035    10.2059     96.238  67.763102     12.662     0.3496      3.113   11.23092   11.21983 2.6655e+00     9.4984     2.7112    50.7735   999.7613  0.000e+00
      8.965    10.1838    10.1863     96.292  67.763107     12.751     0.3364      2.994   11.23611   11.22501 2.5796e+00     9.1677     2.6956    50.9720   999.7634  0.000e+00
      9.016    10.1641    10.1665     96.346  67.763112     12.824     0.3354      2.984   11.24132   11.23023 2.5177e+00     8.5233     2.6424    51.6545   999.7654  0.000e+00
      9.050    10.1453    10.1478     96.528  67.854587     12.873     0.3314      2.947   11.24627   11.23518 2.4444e+00     7.9170     2.5703    52.5932   999.7673  0.000e+00
      9.090    10.1315    10.1339     96.696  67.946062     12.929     0.3338      2.967   11.24993   11.23884 2.3548e+00     7.4972     2.5530    52.8213   999.7688  0.000e+00
      9.141    10.1208    10.1233     96.508  67.793612     13.001     0.3238      2.877   11.25275   11.24166 2.2534e+00     7.1793     2.5065    53.4387   999.7699  0.000e+00
      9.187    10.1117    10.1142     96.620  67.854595     13.067     0.3181      2.827   11.25516   11.24407 2.1773e+00     6.6556     2.4945    53.6001   999.7710  0.000e+00
      9.249    10.1027    10.1051     96.645  67.854598     13.156     0.3153      2.801   11.25755   11.24646 1.9930e+00     6.3334     2.4612    54.0472   999.7721  0.000e+00
      9.316    10.0929    10.0953     96.672  67.854600     13.251     0.3066      2.723   11.26016   11.24907 1.9173e+00     6.1850     2.4294    54.4796   999.7733  0.000e+00
      9.375    10.0814    10.0838     96.704  67.854603     13.334     0.2976      2.643   11.26319   11.25210 1.8666e+00     5.7801     2.4245    54.5462   999.7746  0.000e+00
      9.424    10.0691    10.0715     96.868  67.946077     13.404     0.2997      2.660   11.26645   11.25537 1.7728e+00     5.5469     2.3887    55.0363   999.7760  0.000e+00
      9.465    10.0561    10.0586     96.773  67.854609     13.462     0.2888      2.563   11.26989   11.25881 1.7097e+00     5.4558     2.3392    55.7218   999.7773  0.000e+00
      9.504    10.0423    10.0447     96.942  67.946084     13.518     0.2837      2.517   11.27356   11.26247 1.6565e+00     5.2904     2.3206    55.9809   999.7788  0.000e+00
      9.555    10.0281    10.0305     96.851  67.854616     13.590     0.2867      2.543   11.27734   11.26626 1.5995e+00     5.1166     2.2977    56.3022   999.7803  0.000e+00
      9.612    10.0134    10.0159     96.891  67.854620     13.671     0.2748      2.436   11.28123   11.27015 1.5097e+00     4.9089     2.2544    56.9152   999.7818  0.000e+00
      9.672     9.9980    10.0004     97.065  67.946095     13.757     0.2710      2.401   11.28533   11.27425 1.4378e+00     4.8325     2.2258    57.3238   999.7835  0.000e+00
      9.734     9.9769     9.9793     97.210  68.007081     13.845     0.2589      2.293   11.29093   11.27985 1.3895e+00     4.6757     2.2141    57.4926   999.7857  0.000e+00
      9.788     9.9465     9.9489     97.426  68.098560     13.921     0.2679      2.371   11.29902   11.28794 1.3515e+00     4.6778     2.2055    57.6155   999.7887  0.000e+00
      9.834     9.9136     9.9160     97.518  68.098568     13.987     0.2605      2.304   11.30781   11.29673 1.3011e+00     4.8113     2.1500    58.4210   999.7918  0.000e+00
      9.874     9.8887     9.8911     97.937  68.342501     14.045     0.2599      2.297   11.31443   11.30336 1.2731e+00     4.9004     2.1357    58.6298   999.7943  0.000e+00
      9.915     9.8686     9.8709     97.862  68.251032     14.102     0.2606      2.302   11.31983   11.30875 1.2451e+00     4.6142     2.1098    59.0103   999.7963  0.000e+00
      9.956     9.8567     9.8590     97.808  68.190053     14.160     0.2522      2.227   11.32301   11.31194 1.1850e+00     4.4891     2.0581    59.7787   999.7975  0.000e+00
     10.000     9.8501     9.8525     97.914  68.251037     14.223     0.2580      2.278   11.32477   11.31370 1.1415e+00     4.3026     1.9864    60.8596   999.7983  0.000e+00
     10.056     9.8423     9.8447     97.936  68.251039     14.302     0.2394      2.114   11.32686   11.31579 1.1208e+00     4.3026     1.9290    61.7391   999.7992  0.000e+00
     10.115     9.8348     9.8371     97.870  68.190059     14.387     0.2415      2.132   11.32888   11.31780 1.0992e+00     4.1499     1.8846    62.4291   999.8001  0.000e+00
     10.170     9.8283     9.8307     97.888  68.190061     14.465     0.2322      2.049   11.33061   11.31953 1.0635e+00     4.0545     1.8443    63.0613   999.8009  0.000e+00
     10.225     9.8218     9.8242     98.125  68.342518     14.543     0.2250      1.986   11.33233   11.32126 1.0078e+00     3.9867     1.8263    63.3456   999.8018  0.000e+00
     10.263     9.8168     9.8192     98.139  68.342519     14.598     0.2258      1.992   11.33367   11.32260 1.0059e+00     4.0545     1.8156    63.5144   999.8024  0.000e+00
     10.292     9.8137     9.8161     98.148  68.342520     14.638     0.2277      2.009   11.33452   11.32344 9.9422e-01     4.0291     1.8106    63.5943   999.8028  0.000e+00
     10.330     9.8126     9.8149     98.151  68.342520     14.693     0.2168      1.913   11.33481   11.32374 9.5099e-01     3.9189     1.8056    63.6743   999.8031  0.000e+00
     10.376     9.8125     9.8148     97.976  68.220557     14.759     0.2230      1.968   11.33485   11.32378 9.3801e-01     3.8319     1.7838    64.0222   999.8033  0.000e+00
     10.418     9.8105     9.8128     98.026  68.251048     14.818     0.2204      1.945   11.33538   11.32430 9.0694e-01     3.7514     1.7623    64.3672   999.8037  0.000e+00
     10.462     9.8079     9.8103     98.033  68.251049     14.880     0.2121      1.871   11.33607   11.32499 9.0715e-01     3.7260     1.7598    64.4072   999.8041  0.000e+00
     10.504     9.8071     9.8094     98.035  68.251050     14.940     0.2151      1.897   11.33630   11.32522 8.7871e-01     3.6433     1.7400    64.7270   999.8044  0.000e+00
     10.548     9.8057     9.8080     98.039  68.251050     15.002     0.2214      1.953   11.33667   11.32560 8.6910e-01     3.5797     1.7437    64.6663   999.8047  0.000e+00
     10.593     9.8034     9.8057     98.177  68.342524     15.066     0.2129      1.878   11.33728   11.32620 8.2524e-01     3.5415     1.7403    64.7211   999.8051  0.000e+00
     10.647     9.8016     9.8039     98.182  68.342525     15.143     0.2092      1.845   11.33776   11.32669 8.1397e-01     3.4864     1.7467    64.6189   999.8056  0.000e+00
     10.690     9.7995     9.8018     98.188  68.342526     15.205     0.2096      1.848   11.33832   11.32725 8.1006e-01     3.5140     1.7312    64.8691   999.8059  0.000e+00
     10.731     9.7973     9.7996     98.194  68.342526     15.263     0.1997      1.761   11.33892   11.32784 7.9262e-01     3.4673     1.7441    64.6604   999.8063  0.000e+00
     10.778     9.7955     9.7978     98.331  68.434001     15.330     0.1983      1.749   11.33940   11.32832 7.7858e-01     3.2702     1.7417    64.6989   999.8067  0.000e+00
     10.821     9.7940     9.7963     98.335  68.434001     15.391     0.1970      1.737   11.33980   11.32873 7.4507e-01     3.0582     1.7356    64.7981   999.8071  0.000e+00
     10.875     9.7926     9.7949     98.339  68.434002     15.468     0.1807      1.593   11.34018   11.32910 7.4404e-01     3.0497     1.7470    64.6130   999.8075  0.000e+00
     10.931     9.7907     9.7931     98.344  68.434003     15.548     0.1759      1.551   11.34068   11.32960 7.2320e-01     2.8907     1.7391    64.7418   999.8079  0.000e+00
     10.977     9.7888     9.7911     98.437  68.494986     15.613     0.1858      1.639   11.34119   11.33011 7.1333e-01     2.6787     1.7329    64.8410   999.8083  0.000e+00
     11.024     9.7870     9.7893     98.223  68.342531     15.680     0.1813      1.599   11.34168   11.33060 7.0730e-01     2.5791     1.7316    64.8617   999.8086  0.000e+00
     11.063     9.7852     9.7876     98.447  68.494987     15.735     0.1907      1.682   11.34214   11.33107 6.8403e-01     2.5049     1.7139    65.1505   999.8090  0.000e+00
     11.095     9.7837     9.7861     98.452  68.494988     15.780     0.1774      1.564   11.34255   11.33147 6.8278e-01     2.3947     1.7208    65.0379   999.8093  0.000e+00
     11.127     9.7825     9.7849     98.368  68.434006     15.826     0.1753      1.546   11.34288   11.33180 6.8450e-01     2.2781     1.7203    65.0453   999.8095  0.000e+00
     11.167     9.7815     9.7838     98.458  68.494989     15.883     0.1806      1.592   11.34315   11.33208 6.6214e-01     2.2017     1.7290    64.9047   999.8098  0.000e+00
     11.212     9.7801     9.7824     98.462  68.494990     15.948     0.1686      1.486   11.34353   11.33245 6.4684e-01     2.1233     1.7255    64.9609   999.8101  0.000e+00
     11.254     9.7791     9.7815     98.377  68.434007     16.007     0.1694      1.494   11.34378   11.33271 6.4006e-01     1.9940     1.7259    64.9550   999.8104  0.000e+00
     11.296     9.7780     9.7804     98.468  68.494991     16.066     0.1644      1.449   11.34407   11.33300 6.4182e-01     1.9558     1.7098    65.2171   999.8107  0.000e+00
     11.342     9.7769     9.7792     98.471  68.494991     16.132     0.1599      1.409   11.34439   11.33331 6.1377e-01     1.9071     1.7322    64.8528   999.8110  0.000e+00
     11.391     9.7762     9.7785     98.254  68.342535     16.202     0.1613      1.421   11.34458   11.33351 5.9822e-01     1.8350     1.7226    65.0083   999.8112  0.000e+00
     11.432     9.7749     9.7772     98.214  68.312045     16.260     0.1654      1.458   11.34493   11.33385 5.9617e-01     1.8329     1.7167    65.1046   999.8115  0.000e+00
     11.476     9.7734     9.7757     98.262  68.342537     16.322     0.1687      1.487   11.34533   11.33426 5.8373e-01     1.7990     1.7253    64.9654   999.8119  0.000e+00
     11.511     9.7719     9.7742     98.398  68.434011     16.372     0.1495      1.318   11.34573   11.33466 5.7708e-01     1.8180     1.7279    64.9224   999.8122  0.000e+00
     11.548     9.7704     9.7728     98.270  68.342538     16.426     0.1674      1.475   11.34613   11.33505 5.7656e-01     1.8032     1.7018    65.3474   999.8125  0.000e+00
     11.587     9.7692     9.7715     98.405  68.434012     16.480     0.1620      1.428   11.34645   11.33538 5.6790e-01     1.9240     1.7024    65.3385   999.8128  0.000e+00
     11.635     9.7679     9.7703     98.409  68.434012     16.549     0.1563      1.378   11.34679   11.33572 5.6427e-01     1.9325     1.7113    65.1919   999.8131  0.000e+00
     11.680     9.7666     9.7690     98.412  68.434013     16.613     0.1536      1.354   11.34714   11.33606 5.4421e-01     1.9622     1.7016    65.3503   999.8135  0.000e+00
     11.733     9.7661     9.7685     98.414  68.434013     16.688     0.1433      1.262   11.34728   11.33620 5.3457e-01     1.9601     1.7051    65.2941   999.8138  0.000e+00
     11.782     9.7653     9.7676     98.504  68.494997     16.758     0.1415      1.247   11.34749   11.33642 5.3347e-01     1.8774     1.7145    65.1401   999.8141  0.000e+00
     11.818     9.7641     9.7665     98.639  68.586471     16.810     0.1457      1.284   11.34780   11.33673 5.2534e-01     1.8202     1.6981    65.4081   999.8144  0.000e+00
     11.854     9.7630     9.7653     98.774  68.677946     16.860     0.1475      1.299   11.34811   11.33703 5.2739e-01     1.8286     1.7015    65.3518   999.8147  0.000e+00
     11.887     9.7629     9.7652     98.774  68.677947     16.907     0.1354      1.193   11.34814   11.33707 5.1050e-01     1.8117     1.6851    65.6213   999.8149  0.000e+00
     11.934     9.7645     9.7668     98.638  68.586472     16.974     0.1417      1.249   11.34771   11.33663 4.9928e-01     1.8202     1.6875    65.5813   999.8149  0.000e+00
     11.995     9.7629     9.7653     98.774  68.677947     17.061     0.1427      1.257   11.34812   11.33705 5.0353e-01     1.8901     1.7115    65.1889   999.8154  0.000e+00
     12.054     9.7611     9.7635     98.867  68.738932     17.144     0.1400      1.233   11.34861   11.33753 4.9360e-01     1.8138     1.6891    65.5561   999.8158  0.000e+00
     12.107     9.7598     9.7622     98.783  68.677949     17.221     0.1479      1.303   11.34895   11.33788 4.8330e-01     1.7587     1.6939    65.4762   999.8162  0.000e+00
     12.165     9.7589     9.7612     98.873  68.738933     17.302     0.1384      1.219   11.34920   11.33812 4.7419e-01     1.7036     1.6973    65.4214   999.8166  0.000e+00
     12.218     9.7580     9.7604     98.875  68.738933     17.379     0.1395      1.229   11.34943   11.33836 4.6335e-01     1.7417     1.7068    65.2659   999.8169  0.000e+00
     12.263     9.7568     9.7592     98.791  68.677950     17.443     0.1394      1.228   11.34976   11.33869 4.5828e-01     1.7629     1.6966    65.4333   999.8172  0.000e+00
     12.303     9.7559     9.7582     98.794  68.677951     17.499     0.1316      1.160   11.35001   11.33894 4.5451e-01     1.8371     1.6922    65.5043   999.8174  0.000e+00
     12.347     9.7550     9.7574     98.796  68.677951     17.561     0.1267      1.117   11.35025   11.33917 4.5996e-01     1.9283     1.6945    65.4673   999.8177  0.000e+00
     12.391     9.7543     9.7567     98.886  68.738935     17.624     0.1244      1.096   11.35043   11.33936 4.4564e-01     1.7714     1.6943    65.4703   999.8180  0.000e+00
     12.438     9.7536     9.7559     98.800  68.677952     17.691     0.1207      1.064   11.35064   11.33956 4.3765e-01     1.7184     1.6963    65.4377   999.8183  0.000e+00
     12.487     9.7531     9.7554     98.889  68.738936     17.761     0.1247      1.099   11.35076   11.33969 4.3865e-01     1.6697     1.7027    65.3326   999.8186  0.000e+00
     12.550     9.7526     9.7550     98.979  68.799920     17.850     0.1263      1.112   11.35088   11.33981 4.2598e-01     1.6357     1.7145    65.1401   999.8189  0.000e+00
     12.612     9.7518     9.7542     99.025  68.830413     17.938     0.1351      1.190   11.35110   11.34003 4.2774e-01     1.5912     1.7167    65.1046   999.8193  0.000e+00
     12.666     9.7511     9.7534     99.290  69.013365     18.016     0.1253      1.103   11.35129   11.34022 4.1224e-01     1.5319     1.7361    64.7892   999.8197  0.000e+00
     12.718     9.7504     9.7527     98.897  68.738938     18.089     0.1348      1.187   11.35149   11.34042 4.2141e-01     1.4979     1.7359    64.7936   999.8199  0.000e+00
     12.774     9.7498     9.7521     99.162  68.921890     18.169     0.1305      1.149   11.35164   11.34057 4.1585e-01     1.5403     1.7496    64.5715   999.8203  0.000e+00
     12.841     9.7488     9.7511     99.384  69.074351     18.264     0.1258      1.108   11.35190   11.34083 3.9640e-01     1.6569     1.7634    64.3494   999.8208  0.000e+00
     12.906     9.7477     9.7500     99.300  69.013368     18.357     0.1199      1.057   11.35220   11.34113 4.0904e-01     1.6760     1.7646    64.3302   999.8211  0.000e+00
     12.960     9.7466     9.7490     99.390  69.074352     18.433     0.1168      1.029   11.35248   11.34140 3.9216e-01     1.5764     1.7713    64.2221   999.8215  0.000e+00
     13.010     9.7459     9.7483     99.305  69.013369     18.505     0.1179      1.038   11.35267   11.34159 3.8956e-01     1.5085     1.7784    64.1081   999.8218  0.000e+00
     13.061     9.7450     9.7474     99.395  69.074353     18.577     0.1105      0.973   11.35291   11.34184 3.9234e-01     1.5467     1.7899    63.9245   999.8221  0.000e+00
     13.116     9.7439     9.7462     99.311  69.013370     18.655     0.1250      1.101   11.35321   11.34214 3.8266e-01     1.5488     1.7932    63.8712   999.8225  0.000e+00
     13.162     9.7432     9.7455     99.313  69.013370     18.721     0.1237      1.089   11.35342   11.34234 3.8170e-01     1.6230     1.8165    63.4996   999.8227  0.000e+00
     13.211     9.7423     9.7446     99.315  69.013371     18.791     0.1268      1.117   11.35365   11.34258 3.8654e-01     1.6294     1.8338    63.2256   999.8230  0.000e+00
     13.261     9.7415     9.7438     99.405  69.074356     18.861     0.1231      1.084   11.35387   11.34279 3.6939e-01     1.5955     1.8476    63.0080   999.8234  0.000e+00
     13.310     9.7409     9.7433     99.538  69.165833     18.931     0.1172      1.032   11.35400   11.34293 3.6527e-01     1.5403     1.8444    63.0583   999.8237  0.000e+00
     13.365     9.7406     9.7429     99.539  69.165833     19.010     0.1160      1.022   11.35410   11.34302 3.7100e-01     1.5276     1.8537    62.9117   999.8240  0.000e+00
     13.423     9.7399     9.7422     99.673  69.257311     19.092     0.1127      0.993   11.35428   11.34321 3.5414e-01     1.4322     1.8597    62.8185   999.8244  0.000e+00
     13.489     9.7395     9.7418     99.674  69.257312     19.186     0.1079      0.951   11.35439   11.34332 3.6796e-01     1.4958     1.8922    62.3091   999.8247  0.000e+00
     13.541     9.7387     9.7411     99.545  69.165835     19.260     0.0918      0.809   11.35460   11.34352 3.6069e-01     1.4555     1.8844    62.4320   999.8250  0.000e+00
     13.578     9.7375     9.7399     99.548  69.165835     19.313     0.1015      0.893   11.35492   11.34385 3.6210e-01     1.4598     1.9034    62.1359   999.8252  0.000e+00
     13.630     9.7369     9.7392     99.418  69.074359     19.386     0.1056      0.930   11.35510   11.34403 3.5536e-01     1.4661     1.9226    61.8383   999.8255  0.000e+00
     13.689     9.7360     9.7383     99.333  69.013375     19.470     0.1176      1.036   11.35534   11.34426 3.5309e-01     1.5234     1.9364    61.6251   999.8258  0.000e+00
     13.744     9.7351     9.7374     99.204  68.921900     19.549     0.1173      1.033   11.35559   11.34452 3.4100e-01     1.5064     1.9465    61.4696   999.8261  0.000e+00
     13.799     9.7342     9.7365     99.426  69.074361     19.627     0.1162      1.023   11.35583   11.34476 3.4155e-01     1.4449     1.9625    61.2238   999.8265  0.000e+00
     13.844     9.7336     9.7359     99.428  69.074361     19.691     0.1109      0.977   11.35599   11.34492 3.4328e-01     1.4110     1.9626    61.2223   999.8268  0.000e+00
     13.896     9.7332     9.7355     99.253  68.952393     19.764     0.1173      1.033   11.35611   11.34503 3.3781e-01     1.4068     1.9747    61.0373   999.8270  0.000e+00
     13.969     9.7326     9.7350     99.431  69.074362     19.869     0.1132      0.996   11.35624   11.34517 3.3489e-01     1.4449     1.9868    60.8537   999.8275  0.000e+00
     14.030     9.7319     9.7342     99.082  68.830426     19.955     0.0996      0.877   11.35646   11.34538 3.3905e-01     1.4831     1.9906    60.7959   999.8277  0.000e+00
     14.080     9.7312     9.7335     99.215  68.921903     20.027     0.1013      0.892   11.35664   11.34556 3.2993e-01     1.4513     1.9946    60.7352   999.8280  0.000e+00
     14.135     9.7303     9.7327     99.349  69.013379     20.105     0.1038      0.914   11.35687   11.34579 3.2790e-01     1.4195     2.0079    60.5339   999.8284  0.000e+00
     14.186     9.7294     9.7317     99.352  69.013380     20.177     0.1083      0.954   11.35712   11.34604 3.2350e-01     1.4386     2.0170    60.3962   999.8287  0.000e+00
     14.237     9.7285     9.7308     99.355  69.013380     20.250     0.1065      0.937   11.35737   11.34629 3.3335e-01     1.4598     2.0276    60.2362   999.8290  0.000e+00
     14.282     9.7274     9.7297     99.446  69.074365     20.314     0.1136      1.000   11.35765   11.34657 3.2677e-01     1.4979     2.0383    60.0749   999.8294  0.000e+00
     14.311     9.7266     9.7289     99.360  69.013381     20.355     0.1034      0.911   11.35787   11.34679 3.3168e-01     1.5149     2.0360    60.1089   999.8295  0.000e+00
     14.329     9.7258     9.7282     99.450  69.074366     20.381     0.1053      0.927   11.35807   11.34699 3.2342e-01     1.4958     2.0433    59.9993   999.8297  0.000e+00
     14.343     9.7250     9.7274     99.452  69.074366     20.400     0.1153      1.015   11.35829   11.34721 3.2446e-01     1.4449     2.0639    59.6914   999.8299  0.000e+00
     14.367     9.7246     9.7270     99.585  69.165843     20.434     0.1058      0.932   11.35839   11.34732 3.2850e-01     1.4789     2.0741    59.5404   999.8300  0.000e+00
     14.403     9.7250     9.7274     99.452  69.074367     20.486     0.0974      0.858   11.35829   11.34721 3.2025e-01     1.4280     2.0865    59.3553   999.8301  0.000e+00
     14.440     9.7246     9.7270     99.366  69.013383     20.539     0.0931      0.820   11.35840   11.34733 3.1552e-01     1.4534     2.0906    59.2946   999.8303  0.000e+00
     14.482     9.7234     9.7257     99.369  69.013383     20.598     0.0930      0.819   11.35874   11.34767 3.1617e-01     1.4873     2.0994    59.1643   999.8306  0.000e+00
     14.525     9.7220     9.7243     99.593  69.165845     20.659     0.0896      0.789   11.35911   11.34804 3.1798e-01     1.5191     2.1055    59.0740   999.8310  0.000e+00
     14.567     9.7209     9.7232     99.728  69.257323     20.719     0.0813      0.716   11.35940   11.34833 3.1371e-01     1.6294     2.1107    58.9970   999.8314  0.000e+00
     14.605     9.7193     9.7216     99.820  69.318309     20.773     0.0882      0.776   11.35982   11.34875 3.1014e-01     1.6082     2.1340    58.6549   999.8317  0.000e+00
     14.659     9.7179     9.7202     99.956  69.409787     20.850     0.0910      0.801   11.36019   11.34912 3.1357e-01     1.4937     2.1395    58.5750   999.8321  0.000e+00
     14.719     9.7164     9.7187     99.828  69.318310     20.936     0.0873      0.768   11.36060   11.34953 3.0788e-01     1.5403     2.1402    58.5646   999.8325  0.000e+00
     14.772     9.7151     9.7174     99.744  69.257326     21.011     0.0926      0.815   11.36095   11.34988 3.1142e-01     1.5531     2.1501    58.4195   999.8328  0.000e+00
     14.812     9.7141     9.7164     99.747  69.257326     21.067     0.0917      0.808   11.36123   11.35016 3.0542e-01     1.5637     2.1583    58.2996   999.8331  0.000e+00
     14.859     9.7132     9.7156     99.750  69.257327     21.134     0.0949      0.835   11.36145   11.35038 3.1128e-01     1.4873     2.1759    58.0434   999.8334  0.000e+00
     14.906     9.7126     9.7149     99.752  69.257327     21.201     0.0963      0.847   11.36164   11.35056 3.0936e-01     1.5276     2.1987    57.7133   999.8337  0.000e+00
     14.966     9.7119     9.7142     99.841  69.318313     21.287     0.0971      0.855   11.36181   11.35073 3.0922e-01     1.5488     2.2024    57.6600   999.8340  0.000e+00
     15.020     9.7113     9.7137    100.107  69.501270     21.364     0.0930      0.818   11.36195   11.35088 3.0521e-01     1.4598     2.2146    57.4852   999.8344  0.000e+00
     15.066     9.7106     9.7130    100.109  69.501270     21.429     0.0994      0.875   11.36214   11.35107 3.1000e-01     1.4237     2.2253    57.3313   999.8347  0.000e+00
     15.114     9.7103     9.7127    100.109  69.501271     21.497     0.0897      0.790   11.36222   11.35115 3.0640e-01     1.4471     2.2447    57.0544   999.8349  0.000e+00
     15.161     9.7101     9.7124    100.110  69.501271     21.564     0.0878      0.773   11.36230   11.35122 3.0521e-01     1.3792     2.2550    56.9078   999.8352  0.000e+00
     15.190     9.7095     9.7119    100.112  69.501271     21.606     0.0823      0.724   11.36244   11.35136 3.0325e-01     1.3538     2.2753    56.6191   999.8354  0.000e+00
     15.211     9.7094     9.7117    100.112  69.501271     21.636     0.0855      0.752   11.36247   11.35140 2.9802e-01     1.3262     2.2846    56.4873   999.8355  0.000e+00
     15.238     9.7093     9.7116     99.981  69.409793     21.673     0.0838      0.738   11.36250   11.35143 2.9220e-01     1.4259     2.3015    56.2489   999.8356  0.000e+00
     15.278     9.7090     9.7113    100.113  69.501272     21.731     0.0883      0.777   11.36258   11.35150 3.0521e-01     1.4937     2.3131    56.0860   999.8358  0.000e+00
     15.318     9.7088     9.7111    100.114  69.501272     21.787     0.0943      0.829   11.36264   11.35157 2.9686e-01     1.5234     2.3363    55.7618   999.8360  0.000e+00
     15.342     9.7089     9.7112     99.982  69.409794     21.821     0.0866      0.763   11.36261   11.35154 3.0069e-01     1.5319     2.3449    55.6419   999.8361  0.000e+00
     15.351     9.7086     9.7109    100.114  69.501273     21.834     0.0914      0.805   11.36269   11.35161 2.9127e-01     1.4979     2.3497    55.5752   999.8362  0.000e+00
     15.358     9.7087     9.7110    100.114  69.501273     21.845     0.0907      0.799   11.36267   11.35160 2.9571e-01     1.5149     2.3630    55.3916   999.8362  0.000e+00
     15.372     9.7085     9.7108    100.203  69.562259     21.863     0.0927      0.816   11.36272   11.35164 2.9788e-01     1.5743     2.3777    55.1873   999.8363  0.000e+00
     15.390     9.7087     9.7110    100.114  69.501273     21.890     0.0870      0.766   11.36267   11.35160 2.9816e-01     1.5403     2.4029    54.8408   999.8364  0.000e+00
     15.411     9.7085     9.7109    100.115  69.501273     21.920     0.0831      0.732   11.36270   11.35163 2.9863e-01     1.4916     2.4161    54.6602   999.8365  0.000e+00
     15.436     9.7083     9.7106    100.115  69.501273     21.956     0.0767      0.675   11.36278   11.35171 2.9898e-01     1.5276     2.4477    54.2308   999.8366  0.000e+00
     15.452     9.7083     9.7106    100.115  69.501273     21.977     0.0844      0.743   11.36278   11.35171 2.9822e-01     1.5064     2.4275    54.5047   999.8367  0.000e+00
     15.463     9.7081     9.7105     99.984  69.409795     21.993     0.0792      0.697   11.36282   11.35174 2.9510e-01     1.4598     2.4407    54.3256   999.8367  0.000e+00
     15.478     9.7081     9.7105    100.116  69.501274     22.015     0.0833      0.733   11.36281   11.35174 2.9537e-01     1.4661     2.4414    54.3167   999.8368  0.000e+00
     15.488     9.7082     9.7105    100.116  69.501274     22.029     0.0779      0.686   11.36280   11.35172 2.9775e-01     1.4449     2.4566    54.1094   999.8369  0.000e+00
     15.499     9.7081     9.7105    100.116  69.501274     22.044     0.0801      0.705   11.36281   11.35174 2.9980e-01     1.4746     2.4765    53.8414   999.8369  0.000e+00
     15.508     9.7081     9.7104    100.116  69.501274     22.057     0.0754      0.664   11.36283   11.35175 2.9953e-01     1.4047     2.4768    53.8370   999.8370  0.000e+00
     15.522     9.7081     9.7104    100.336  69.653739     22.077     0.0887      0.781   11.36282   11.35175 2.9415e-01     1.4471     2.5027    53.4905   999.8371  0.000e+00
     15.538     9.7079     9.7102    100.292  69.623246     22.101     0.0801      0.705   11.36287   11.35180 2.9093e-01     1.4280     2.5076    53.4239   999.8372  0.000e+00
     15.547     9.7074     9.7097    100.118  69.501274     22.113     0.0747      0.658   11.36302   11.35194 2.8987e-01     1.3877     2.5141    53.3380   999.8372  0.000e+00
