* Sea-Bird SBE19plus Data File:
* FileName = C:\Users\instrument\Desktop\Iola Rosa. CTD Casts\February 2024\Feb135.hex
* Software Version 1.59
* Temperature SN =  4268
* Conductivity SN =  4268
* System UpLoad Time = Feb 26 2024 13:53:03
* ds
* SeacatPlus V 1.6  SERIAL NO. 4268    26 Feb 2024  13:53:56
* vbatt = 12.7, vlith =  7.9, ioper =  61.6 ma, ipump =  85.0 ma,
* iext01 =  39.7 ma
* iext23 =  52.7 ma
*
* status = not logging
* number of scans to average = 1
* samples = 213406, free = 227668, casts = 152
* mode = profile, minimum cond freq = 2567, pump delay = 60 sec
* autorun = no, ignore magnetic switch = no
* battery type = alkaline, battery cutoff =  7.3 volts
* pressure sensor = strain gauge, range = 508.0
* SBE 38 = no, Gas Tension Device = no
* Ext Volt 0 = yes, Ext Volt 1 = yes, Ext Volt 2 = yes, Ext Volt 3 = yes
* echo commands = yes
* output format = raw HEX

* S>
*
* SeacatPlus V 1.6  SERIAL NO. 4268    26 Feb 2024  13:55:03
* temperature:  06-dec-05
*     TA0 = 1.161749e-03
*     TA1 = 2.891779e-04
*     TA2 = -3.393560e-06
*     TA3 = 2.889319e-07
*     TOFFSET = 0.000000e+00
* conductivity:  06-dec-05
*     G = -9.977815e-01
*     H = 1.528486e-01
*     I = -4.694078e-04
*     J = 6.039801e-05
*     CF0 = 2.561972e+03
*     CPCOR = -9.570000e-08
*     CTCOR = 3.250000e-06
*     CSLOPE = 1.000000e+00
* pressure S/N = 1980, range = 508 psia:  22-nov-05
*     PA0 = 1.166340e-01
*     PA1 = 1.562008e-03
*     PA2 = 7.521856e-12
*     PTCA0 = 5.244793e+05
*     PTCA1 = 6.705477e+00
*     PTCA2 = -1.525623e-01
*     PTCB0 = 2.485325e+01
*     PTCB1 = -3.500000e-04
*     PTCB2 = 0.000000e+00
*     PTEMPA0 = -7.187026e+01
*     PTEMPA1 = 4.819360e+01
*     PTEMPA2 = -2.287845e-02
*     POFFSET = 0.000000e+00
* volt 0: offset = -4.716333e-02, slope = 1.249825e+00
* volt 1: offset = -4.705000e-02, slope = 1.250722e+00
* volt 2: offset = -4.720000e-02, slope = 1.250906e+00
* volt 3: offset = 0.000000e+00, slope = 1.000000e+00
*     EXTFREQSF = 1.000004e+00
* dh
* cast 135 09 Feb 2024 12:05:17 samples 193382 to 194009, avg = 1, stop = mag switch

* S>
# nquan = 16
# nvalues = 464                                   
# units = specified
# name 0 = depFM: Depth [fresh water, m]
# name 1 = tv290C: Temperature [ITS-90, deg C]
# name 2 = tv268C: Temperature [IPTS-68, deg C]
# name 3 = specc: Specific Conductance [uS/cm]
# name 4 = c0uS/cm: Conductivity [uS/cm]
# name 5 = prdE: Pressure, Strain Gauge [psi]
# name 6 = sbeox0Mg/L: Oxygen, SBE 43 [mg/l]
# name 7 = sbeox0PS: Oxygen, SBE 43 [% saturation]
# name 8 = oxsolMg/L: Oxygen Saturation, Garcia & Gordon [mg/l]
# name 9 = oxsatMg/L: Oxygen Saturation, Weiss [mg/l]
# name 10 = par: PAR/Irradiance, Biospherical/Licor
# name 11 = flCM: Fluorescence, Chelsea Mini Chl Con [ug/l]
# name 12 = bat: Beam Attenuation, Chelsea/Seatech [1/m]
# name 13 = xmiss: Beam Transmission, Chelsea/Seatech [%]
# name 14 = density00: Density [density, kg/m^3]
# name 15 = flag:  0.000e+00
# span 0 =     -0.619,     16.112                 
# span 1 =     9.7892,    25.0979                 
# span 2 =     9.7915,    25.1039                 
# span 3 =     92.264,    274.075                 
# span 4 =  68.006939, 190.861316                 
# span 5 =     -0.881,     22.917                 
# span 6 =    -0.7435,     8.4958                 
# span 7 =     -7.133,    101.775                 
# span 8 =    8.24597,   11.34090                 
# span 9 =    8.22640,   11.32983                 
# span 10 = 1.4260e-01, 7.9518e+01                
# span 11 =    -0.3612,    24.9652                
# span 12 =     1.5144,    12.1759                
# span 13 =     4.7645,    68.4819                
# span 14 =   997.0619,   999.8950                
# span 15 = 0.0000e+00, 0.0000e+00                
# interval = seconds: 0.25
# start_time = Feb 09 2024 12:05:17 [Instrument's time stamp, header]
# bad_flag = -9.990e-29
# <Sensors count="7" >
#   <sensor Channel="1" >
#     <!-- Count, Temperature -->
#     <TemperatureSensor SensorID="58" >
#       <SerialNumber>4268</SerialNumber>
#       <CalibrationDate>06-Dec-05</CalibrationDate>
#       <A0>1.16174900e-003</A0>
#       <A1>2.89177900e-004</A1>
#       <A2>-3.39356000e-006</A2>
#       <A3>2.88931900e-007</A3>
#       <Slope>1.00000000</Slope>
#       <Offset>0.0000</Offset>
#     </TemperatureSensor>
#   </sensor>
#   <sensor Channel="2" >
#     <!-- Frequency 0, Conductivity -->
#     <ConductivitySensor SensorID="3" >
#       <SerialNumber>4268</SerialNumber>
#       <CalibrationDate>06-Dec-05</CalibrationDate>
#       <UseG_J>1</UseG_J>
#       <!-- Cell const and series R are applicable only for wide range sensors. -->
#       <SeriesR>0.0000</SeriesR>
#       <CellConst>2000.0000</CellConst>
#       <ConductivityType>0</ConductivityType>
#       <Coefficients equation="0" >
#         <A>0.00000000e+000</A>
#         <B>0.00000000e+000</B>
#         <C>0.00000000e+000</C>
#         <D>0.00000000e+000</D>
#         <M>0.0</M>
#         <CPcor>-9.57000000e-008</CPcor>
#       </Coefficients>
#       <Coefficients equation="1" >
#         <G>-9.97781500e-001</G>
#         <H>1.52848600e-001</H>
#         <I>-4.69407800e-004</I>
#         <J>6.03980100e-005</J>
#         <CPcor>-9.57000000e-008</CPcor>
#         <CTcor>3.2500e-006</CTcor>
#         <!-- WBOTC not applicable unless ConductivityType = 1. -->
#         <WBOTC>0.00000000e+000</WBOTC>
#       </Coefficients>
#       <Slope>1.00000000</Slope>
#       <Offset>0.00000</Offset>
#     </ConductivitySensor>
#   </sensor>
#   <sensor Channel="3" >
#     <!-- Count, Pressure, Strain Gauge -->
#     <PressureSensor SensorID="46" >
#       <SerialNumber>4268</SerialNumber>
#       <CalibrationDate>22-Nov-05</CalibrationDate>
#       <PA0>1.16634000e-001</PA0>
#       <PA1>1.56200800e-003</PA1>
#       <PA2>7.52185600e-012</PA2>
#       <PTEMPA0>-7.18702600e+001</PTEMPA0>
#       <PTEMPA1>4.81936000e+001</PTEMPA1>
#       <PTEMPA2>-2.28784500e-002</PTEMPA2>
#       <PTCA0>5.24479300e+005</PTCA0>
#       <PTCA1>6.70547700e+000</PTCA1>
#       <PTCA2>-1.52562300e-001</PTCA2>
#       <PTCB0>2.48532500e+001</PTCB0>
#       <PTCB1>-3.50000000e-004</PTCB1>
#       <PTCB2>0.00000000e+000</PTCB2>
#       <Offset>0.000000</Offset>
#     </PressureSensor>
#   </sensor>
#   <sensor Channel="4" >
#     <!-- A/D voltage 0, Oxygen, SBE 43 -->
#     <OxygenSensor SensorID="38" >
#       <SerialNumber>0268</SerialNumber>
#       <CalibrationDate>29-Feb-20</CalibrationDate>
#       <Use2007Equation>1</Use2007Equation>
#       <CalibrationCoefficients equation="0" >
#         <!-- Coefficients for Owens-Millard equation. -->
#         <Boc>0.0000</Boc>
#         <Soc>3.1260e-001</Soc>
#         <offset>-0.4337</offset>
#         <Pcor>1.35e-004</Pcor>
#         <Tcor>0.0023</Tcor>
#         <Tau>0.0</Tau>
#       </CalibrationCoefficients>
#       <CalibrationCoefficients equation="1" >
#         <!-- Coefficients for Sea-Bird equation - SBE calibration in 2007 and later. -->
#         <Soc>5.4910e-001</Soc>
#         <offset>-0.4386</offset>
#         <A>-3.6337e-003</A>
#         <B> 1.0518e-004</B>
#         <C>-1.0368e-006</C>
#         <D0> 2.5826e+000</D0>
#         <D1> 1.92634e-004</D1>
#         <D2>-4.64803e-002</D2>
#         <E> 3.6000e-002</E>
#         <Tau20> 1.2800</Tau20>
#         <H1>-3.3000e-002</H1>
#         <H2> 5.0000e+003</H2>
#         <H3> 1.4500e+003</H3>
#       </CalibrationCoefficients>
#     </OxygenSensor>
#   </sensor>
#   <sensor Channel="5" >
#     <!-- A/D voltage 1, Transmissometer, Chelsea/Seatech -->
#     <TransChelseaSeatechWetlabCStarSensor SensorID="59" >
#       <SerialNumber>CST-612PR</SerialNumber>
#       <CalibrationDate>6/27/02</CalibrationDate>
#       <M>19.4066</M>
#       <B>-1.1062</B>
#       <PathLength>0.250</PathLength>
#     </TransChelseaSeatechWetlabCStarSensor>
#   </sensor>
#   <sensor Channel="6" >
#     <!-- A/D voltage 2, Fluorometer, Chelsea Minitracka -->
#     <FluoroChelseaMinitrackaSensor SensorID="6" >
#       <SerialNumber>175011</SerialNumber>
#       <CalibrationDate>26-Mar-97</CalibrationDate>
#       <Vacetone>0.013</Vacetone>
#       <Vacetone100>3.612</Vacetone100>
#       <Offset>0.000</Offset>
#     </FluoroChelseaMinitrackaSensor>
#   </sensor>
#   <sensor Channel="7" >
#     <!-- A/D voltage 3, PAR/Irradiance, Biospherical/Licor -->
#     <PAR_BiosphericalLicorChelseaSensor SensorID="42" >
#       <SerialNumber>6404</SerialNumber>
#       <CalibrationDate>29-Nov-05</CalibrationDate>
#       <M>-0.76668700</M>
#       <B>-3.43363000</B>
#       <CalibrationConstant>3.42000000</CalibrationConstant>
#       <Multiplier>1.00000000</Multiplier>
#       <Offset>0.00000000</Offset>
#     </PAR_BiosphericalLicorChelseaSensor>
#   </sensor>
# </Sensors>
# datcnv_date = Jun 04 2024 15:04:43, 7.26.7.129 [datcnv_vars = 15]
# datcnv_in = C:\Users\ir64\OneDrive - The University of Waikato\Documents\Sampling\CTD casts\2024.02 CTD casts\2024.02 Hex files\Feb135.hex C:\Users\ir64\OneDrive - The University of Waikato\Documents\Sampling\CTD Documents\New 4268 & 6165 con files\20200723_SBE19_4268.xmlcon
# datcnv_skipover = 0
# datcnv_ox_hysteresis_correction = yes
# datcnv_ox_tau_correction = yes
# file_type = ascii
*END*
     -0.439    24.5601    24.5660    102.089 101.203336     -0.625     8.0416     96.559    8.32819    8.30889 7.8828e+01    -0.3612    12.0223     4.9511   997.1962  0.000e+00
     -0.326    24.4536    24.4594     97.617  96.561908     -0.464     8.0636     96.631    8.34476    8.32552 7.9518e+01    -0.3612    11.1508     6.1563   997.2220  0.000e+00
     -0.296    24.3623    24.3681     96.839  95.615453     -0.421     8.0884     96.764    8.35894    8.33975 7.7948e+01    -0.3612    12.1759     4.7645   997.2447  0.000e+00
     -0.268    24.3063    24.3121     96.763  95.432285     -0.381     8.1160     96.993    8.36765    8.34849 7.5626e+01    -0.1471     3.6567    40.0849   997.2588  0.000e+00
     -0.212    24.2768    24.2826     97.100  95.707074     -0.301     8.1420     97.250    8.37224    8.35309 7.5142e+01    -0.3612     2.1508    58.4092   997.2665  0.000e+00
     -0.164    24.2634    24.2692     97.375  95.951329     -0.234     8.1834     97.720    8.37433    8.35519 3.9091e+01     0.1645     1.8152    63.5203   997.2702  0.000e+00
     -0.108    24.2591    24.2649     97.290  95.859736     -0.154     8.2240     98.197    8.37500    8.35586 4.5224e+01     0.7009     1.7757    64.1510   997.2715  0.000e+00
     -0.028    24.2582    24.2640     97.447  96.012395     -0.040     8.2765     98.822    8.37514    8.35600 4.4831e+01     0.7899     1.6854    65.6169   997.2721  0.000e+00
      0.022    24.2584    24.2643     98.035  96.592505      0.032     8.3334     99.503    8.37508    8.35595 4.3886e+01     0.8556     1.6771    65.7516   997.2725  0.000e+00
      0.031    24.2765    24.2823     98.836  97.416893      0.044     8.3960    100.283    8.37226    8.35311 4.3327e+01     1.0188     1.6976    65.4170   997.2683  0.000e+00
      0.023    24.3594    24.3652     98.329  97.080999      0.033     8.4442    101.015    8.35937    8.34017 4.3178e+01     0.9955     1.7292    64.9017   997.2474  0.000e+00
      0.016    24.4431    24.4489     97.607  96.531382      0.022     8.4719    101.504    8.34639    8.32715 4.5944e+01     1.2224     1.7083    65.2423   997.2261  0.000e+00
      0.009    24.4685    24.4744     97.125  96.103925      0.013     8.4905    101.775    8.34246    8.32321 4.9815e+01     1.3580     2.1727    58.0908   997.2196  0.000e+00
      0.015    24.4258    24.4316     96.807  95.707029      0.021     8.4958    101.757    8.34909    8.32986 4.3987e+01     1.5361     1.8704    62.6512   997.2302  0.000e+00
      0.033    24.3691    24.3750     96.826  95.615454      0.047     8.4930    101.617    8.35788    8.33868 4.3386e+01     1.6357     1.7014    65.3548   997.2445  0.000e+00
      0.049    24.3329    24.3388     96.897  95.615465      0.069     8.4420    100.938    8.36351    8.34433 4.3158e+01     1.7163     1.6804    65.6983   997.2536  0.000e+00
      0.055    24.3139    24.3197     97.027  95.707065      0.079     8.3159     99.395    8.36647    8.34730 4.5431e+01     1.8074     1.6659    65.9367   997.2585  0.000e+00
      0.049    24.3031    24.3090     97.110  95.768130      0.069     8.1501     97.394    8.36814    8.34898 4.5203e+01     1.8435     1.6515    66.1750   997.2611  0.000e+00
      0.039    24.2951    24.3009     97.064  95.707070      0.055     7.9541     95.039    8.36939    8.35023 4.5892e+01     1.8371     1.6471    66.2476   997.2631  0.000e+00
      0.037    24.2863    24.2921     96.834  95.462825      0.052     7.7279     92.320    8.37077    8.35162 4.3616e+01     1.9071     1.6643    65.9633   997.2652  0.000e+00
      0.044    24.2822    24.2880     96.904  95.523888      0.063     7.4753     89.295    8.37141    8.35226 4.3476e+01     1.9770     1.6594    66.0448   997.2663  0.000e+00
      0.056    24.2821    24.2879     96.997  95.615481      0.080     7.2490     86.592    8.37142    8.35227 4.3386e+01     2.1254     1.6558    66.1040   997.2664  0.000e+00
      0.061    24.2835    24.2893     96.994  95.615481      0.086     7.0652     84.399    8.37121    8.35205 4.3776e+01     2.0703     1.6470    66.2491   997.2661  0.000e+00
      0.057    24.2852    24.2910     96.991  95.615480      0.082     6.9267     82.747    8.37094    8.35178 4.4565e+01     2.0216     1.6423    66.3276   997.2656  0.000e+00
      0.052    24.2873    24.2931     96.894  95.523887      0.074     6.8043     81.287    8.37061    8.35146 4.5390e+01     2.0025     1.6549    66.1188   997.2650  0.000e+00
      0.057    24.2888    24.2947     96.891  95.523886      0.082     6.7091     80.153    8.37037    8.35122 4.5598e+01     1.9707     1.6360    66.4312   997.2647  0.000e+00
      0.072    24.2888    24.2947     96.984  95.615479      0.102     6.6516     79.466    8.37037    8.35122 4.2872e+01     1.9876     1.6420    66.3320   997.2648  0.000e+00
      0.093    24.2896    24.2955     97.137  95.768135      0.132     6.6527     79.481    8.37024    8.35108 4.3826e+01     1.9855     1.6646    65.9574   997.2647  0.000e+00
      0.111    24.2906    24.2965     97.723  96.348237      0.158     6.7160     80.239    8.37007    8.35091 4.2833e+01     2.0406     1.6432    66.3127   997.2647  0.000e+00
      0.109    24.2913    24.2971     97.815  96.439833      0.155     6.8018     81.265    8.36997    8.35081 4.4169e+01     2.0555     1.6312    66.5112   997.2646  0.000e+00
      0.099    24.2929    24.2988     97.223  95.859728      0.141     6.8814     82.217    8.36973    8.35057 4.4842e+01     2.0173     1.6533    66.1440   997.2640  0.000e+00
      0.089    24.2959    24.3018     97.063  95.707070      0.127     6.9244     82.737    8.36926    8.35010 4.4402e+01     2.0300     1.6493    66.2106   997.2631  0.000e+00
      0.086    24.2946    24.3004     96.972  95.615478      0.122     6.9431     82.957    8.36948    8.35032 4.4945e+01     2.0237     1.6356    66.4386   997.2634  0.000e+00
      0.092    24.2914    24.2972     96.979  95.615479      0.130     6.9239     82.723    8.36997    8.35082 4.4007e+01     2.0216     1.6386    66.3883   997.2642  0.000e+00
      0.099    24.2877    24.2936     97.234  95.859729      0.141     6.8720     82.097    8.37054    8.35138 4.4545e+01     1.9580     1.6620    66.0003   997.2652  0.000e+00
      0.099    24.2877    24.2936     97.636  96.256641      0.141     6.7720     80.904    8.37053    8.35137 4.3536e+01     1.9749     1.6412    66.3453   997.2654  0.000e+00
      0.099    24.2874    24.2932     97.575  96.195578      0.141     6.6431     79.362    8.37058    8.35143 4.4986e+01     1.9834     1.6774    65.7471   997.2655  0.000e+00
      0.095    24.2856    24.2914     97.114  95.737605      0.135     6.5160     77.841    8.37088    8.35172 4.4637e+01     1.9728     1.6542    66.1306   997.2657  0.000e+00
      0.094    24.2842    24.2900     96.993  95.615481      0.133     6.4214     76.709    8.37109    8.35194 4.4453e+01     1.9431     1.6688    65.8893   997.2660  0.000e+00
      0.096    24.2824    24.2882     97.089  95.707075      0.136     6.3660     76.045    8.37138    8.35222 4.3546e+01     1.9134     1.6498    66.2032   997.2665  0.000e+00
      0.096    24.2800    24.2858     97.094  95.707075      0.136     6.3524     75.879    8.37174    8.35259 4.4078e+01     1.9431     1.6273    66.5763   997.2671  0.000e+00
      0.100    24.2783    24.2841     97.004  95.615483      0.143     6.3562     75.922    8.37202    8.35287 4.4392e+01     1.9431     1.6561    66.0981   997.2675  0.000e+00
      0.121    24.2753    24.2811     96.824  95.432299      0.172     6.3571     75.928    8.37249    8.35334 4.3317e+01     1.9728     1.6383    66.3927   997.2683  0.000e+00
      0.146    24.2724    24.2783     97.016  95.615485      0.208     6.3475     75.810    8.37292    8.35378 4.2735e+01     1.9728     1.6423    66.3261   997.2692  0.000e+00
      0.155    24.2719    24.2777     97.513  96.103987      0.221     6.3400     75.719    8.37300    8.35385 4.1178e+01     1.9346     1.6372    66.4119   997.2695  0.000e+00
      0.152    24.2733    24.2791     97.758  96.348243      0.216     6.3339     75.648    8.37278    8.35363 4.1471e+01     1.9855     1.6336    66.4712   997.2693  0.000e+00
      0.139    24.2727    24.2785     97.604  96.195583      0.197     6.3441     75.770    8.37287    8.35372 4.3148e+01     2.0364     1.6675    65.9100   997.2693  0.000e+00
      0.125    24.2818    24.2876     97.152  95.768138      0.177     6.3559     75.924    8.37146    8.35231 4.2598e+01     2.0194     1.6490    66.2165   997.2668  0.000e+00
      0.121    24.2936    24.2994     96.881  95.523885      0.172     6.3951     76.409    8.36964    8.35048 4.2258e+01     1.9580     1.6270    66.5807   997.2638  0.000e+00
      0.128    24.2936    24.2994     96.881  95.523885      0.182     6.4703     77.307    8.36964    8.35048 4.3616e+01     1.8816     1.6263    66.5926   997.2638  0.000e+00
      0.154    24.2868    24.2927     96.895  95.523888      0.219     6.5598     78.366    8.37068    8.35153 4.0840e+01     1.9240     1.6394    66.3749   997.2656  0.000e+00
      0.210    24.2792    24.2850     96.755  95.371237      0.299     6.6167     79.035    8.37188    8.35273 3.9046e+01     2.0110     1.6210    66.6814   997.2677  0.000e+00
      0.238    24.2720    24.2778     97.512  96.103988      0.338     6.6576     79.513    8.37298    8.35384 4.0523e+01     2.0025     1.6262    66.5941   997.2699  0.000e+00
      0.209    24.2730    24.2788     98.192  96.775698      0.297     6.6962     79.976    8.37281    8.35367 4.3376e+01     2.0025     1.6465    66.2580   997.2697  0.000e+00
      0.145    24.3298    24.3357     98.141  96.836745      0.207     6.7122     80.251    8.36396    8.34479 4.4862e+01     2.0088     1.6588    66.0536   997.2553  0.000e+00
      0.116    24.4574    24.4633     97.239  96.195525      0.165     6.7754     81.200    8.34417    8.32493 4.2316e+01     2.0258     1.6331    66.4801   997.2229  0.000e+00
      0.115    24.5218    24.5277     96.805  95.890188      0.163     6.9058     82.861    8.33421    8.31493 4.2706e+01     2.0491     1.6420    66.3320   997.2065  0.000e+00
      0.115    24.4792    24.4851     96.857  95.859670      0.163     7.0460     84.476    8.34081    8.32155 4.3656e+01     2.1233     1.6466    66.2550   997.2172  0.000e+00
      0.109    24.4279    24.4337     97.112  96.012343      0.155     7.1426     85.553    8.34876    8.32953 4.3616e+01     2.0936     1.6518    66.1691   997.2302  0.000e+00
      0.107    24.4006    24.4065     97.413  96.256606      0.152     7.1971     86.162    8.35298    8.33376 4.4862e+01     2.0894     1.6578    66.0699   997.2371  0.000e+00
      0.115    24.3837    24.3896     97.199  96.012357      0.163     7.2222     86.436    8.35560    8.33640 4.3148e+01     2.0322     1.6432    66.3113   997.2413  0.000e+00
      0.131    24.3675    24.3733     97.076  95.859705      0.187     7.2145     86.318    8.35813    8.33893 4.1424e+01     2.0258     1.6372    66.4119   997.2454  0.000e+00
      0.143    24.3518    24.3576     97.107  95.859710      0.204     7.1790     85.867    8.36057    8.34138 4.1272e+01     2.0343     1.6273    66.5763   997.2494  0.000e+00
      0.155    24.3357    24.3415     97.232  95.951309      0.221     7.1114     85.033    8.36308    8.34390 4.2065e+01     2.0237     1.6331    66.4801   997.2535  0.000e+00
      0.159    24.3229    24.3287     97.412  96.103972      0.226     7.0232     83.959    8.36506    8.34588 4.1367e+01     2.0746     1.6539    66.1351   997.2568  0.000e+00
      0.149    24.3209    24.3267     97.509  96.195568      0.212     6.9372     82.928    8.36537    8.34619 4.1567e+01     2.0809     1.6611    66.0151   997.2573  0.000e+00
      0.140    24.3190    24.3248     97.327  96.012378      0.199     6.8505     81.888    8.36567    8.34650 4.1567e+01     2.1021     1.6608    66.0211   997.2577  0.000e+00
      0.139    24.3122    24.3181     97.092  95.768128      0.197     6.7541     80.726    8.36672    8.34756 4.0727e+01     2.1466     1.6769    65.7560   997.2593  0.000e+00
      0.148    24.2986    24.3044     97.057  95.707070      0.210     6.6610     79.593    8.36885    8.34969 4.0943e+01     2.1721     1.6583    66.0625   997.2627  0.000e+00
      0.154    24.2855    24.2913     97.083  95.707074      0.219     6.5651     78.428    8.37089    8.35174 4.0924e+01     2.1636     1.6589    66.0522   997.2660  0.000e+00
      0.157    24.2802    24.2860     97.341  95.951327      0.224     6.4938     77.568    8.37171    8.35256 4.0924e+01     2.1106     1.6349    66.4490   997.2674  0.000e+00
      0.158    24.2795    24.2854     97.590  96.195581      0.224     6.4268     76.767    8.37180    8.35265 4.1452e+01     2.0767     1.6443    66.2935   997.2677  0.000e+00
      0.153    24.2755    24.2813     97.599  96.195582      0.218     6.3719     76.106    8.37244    8.35329 4.1528e+01     2.0428     1.6050    66.9479   997.2687  0.000e+00
      0.147    24.2706    24.2765     97.515  96.103988      0.208     6.3289     75.585    8.37320    8.35405 4.1112e+01     1.9346     1.6471    66.2476   997.2698  0.000e+00
      0.150    24.2681    24.2739     97.241  95.829205      0.213     6.2877     75.090    8.37360    8.35445 4.1102e+01     2.0322     1.6393    66.3764   997.2704  0.000e+00
      0.154    24.2643    24.2701     97.187  95.768143      0.219     6.2584     74.734    8.37419    8.35505 4.1652e+01     2.0258     1.6090    66.8813   997.2713  0.000e+00
      0.157    24.2575    24.2634     97.200  95.768145      0.224     6.2052     74.090    8.37524    8.35611 4.0411e+01     2.0216     1.6244    66.6252   997.2730  0.000e+00
      0.159    24.2535    24.2594     97.549  96.103993      0.226     6.1640     73.593    8.37586    8.35672 4.1329e+01     2.0237     1.6391    66.3794   997.2741  0.000e+00
      0.156    24.2550    24.2608     97.701  96.256652      0.222     6.1173     73.037    8.37563    8.35649 4.0727e+01     1.9537     1.6334    66.4741   997.2738  0.000e+00
      0.154    24.2547    24.2605     97.795  96.348248      0.219     6.0700     72.472    8.37567    8.35653 4.1443e+01     1.9177     1.6445    66.2905   997.2739  0.000e+00
      0.152    24.2533    24.2592     97.797  96.348249      0.216     6.0179     71.848    8.37588    8.35675 4.0467e+01     1.9643     1.6474    66.2432   997.2742  0.000e+00
      0.151    24.2554    24.2613     97.545  96.103993      0.215     5.9695     71.273    8.37556    8.35643 4.0116e+01     1.9262     1.6427    66.3201   997.2736  0.000e+00
      0.153    24.2590    24.2648     97.538  96.103991      0.218     5.9238     70.732    8.37501    8.35587 4.0245e+01     1.8583     1.6561    66.0981   997.2728  0.000e+00
      0.156    24.2614    24.2672     97.688  96.256650      0.222     5.8930     70.367    8.37464    8.35550 4.0199e+01     1.8456     1.6241    66.6296   997.2722  0.000e+00
      0.160    24.2643    24.2701     97.683  96.256649      0.227     5.8653     70.040    8.37418    8.35504 4.0532e+01     1.9240     1.6318    66.5008   997.2715  0.000e+00
      0.158    24.2694    24.2752     97.858  96.439840      0.224     5.8467     69.825    8.37339    8.35424 4.0671e+01     1.9516     1.6432    66.3127   997.2703  0.000e+00
      0.156    24.2723    24.2781     97.853  96.439840      0.222     5.8160     69.462    8.37293    8.35379 4.0448e+01     1.9558     1.6357    66.4356   997.2696  0.000e+00
      0.154    24.2732    24.2790     97.851  96.439839      0.219     5.7832     69.072    8.37279    8.35364 4.0374e+01     1.9389     1.6458    66.2683   997.2693  0.000e+00
      0.154    24.2745    24.2804     97.662  96.256646      0.219     5.7454     68.622    8.37258    8.35343 3.9978e+01     2.0322     1.6482    66.2298   997.2689  0.000e+00
      0.154    24.2765    24.2823     97.658  96.256645      0.219     5.7055     68.148    8.37228    8.35314 4.0821e+01     2.0576     1.6368    66.4179   997.2685  0.000e+00
      0.156    24.2779    24.2837     97.594  96.195581      0.222     5.6717     67.745    8.37206    8.35291 4.0328e+01     2.0322     1.6463    66.2609   997.2681  0.000e+00
      0.159    24.2787    24.2846     97.747  96.348241      0.226     5.6359     67.319    8.37193    8.35278 4.0356e+01     1.9982     1.6133    66.8102   997.2679  0.000e+00
      0.156    24.2801    24.2859     97.961  96.561966      0.222     5.6032     66.930    8.37171    8.35256 3.9768e+01     1.9728     1.6272    66.5778   997.2677  0.000e+00
      0.155    24.2815    24.2874     97.989  96.592499      0.221     5.5613     66.431    8.37148    8.35233 4.0282e+01     1.9368     1.6585    66.0581   997.2673  0.000e+00
      0.155    24.2826    24.2885     97.832  96.439836      0.221     5.5299     66.057    8.37132    8.35216 4.0273e+01     1.9177     1.6446    66.2891   997.2670  0.000e+00
      0.155    24.2839    24.2897     97.830  96.439836      0.221     5.4984     65.683    8.37112    8.35197 4.1008e+01     1.9283     1.6273    66.5763   997.2667  0.000e+00
      0.155    24.2850    24.2908     97.734  96.348239      0.221     5.4605     65.231    8.37095    8.35180 4.0098e+01     1.8944     1.6842    65.6361   997.2663  0.000e+00
      0.156    24.2858    24.2917     97.826  96.439835      0.222     5.4265     64.826    8.37082    8.35167 3.9988e+01     2.0046     1.6436    66.3053   997.2662  0.000e+00
      0.156    24.2863    24.2921     97.918  96.531432      0.222     5.3926     64.422    8.37075    8.35159 3.9686e+01     2.0767     1.6549    66.1188   997.2661  0.000e+00
      0.158    24.2873    24.2931     98.071  96.684094      0.224     5.3607     64.042    8.37059    8.35143 3.9732e+01     2.0618     1.6566    66.0907   997.2659  0.000e+00
      0.156    24.2887    24.2946     97.975  96.592496      0.222     5.3324     63.706    8.37036    8.35121 4.0774e+01     2.0661     1.6379    66.4001   997.2655  0.000e+00
      0.156    24.2899    24.2957     97.911  96.531431      0.222     5.3030     63.355    8.37018    8.35102 3.9997e+01     2.0428     1.6569    66.0847   997.2652  0.000e+00
      0.159    24.2909    24.2968     97.909  96.531431      0.226     5.2754     63.028    8.37002    8.35087 3.9841e+01     2.0767     1.6231    66.6459   997.2649  0.000e+00
      0.156    24.2913    24.2971     97.815  96.439834      0.222     5.2465     62.682    8.36997    8.35081 3.9850e+01     2.0343     1.6172    66.7451   997.2648  0.000e+00
      0.156    24.2916    24.2974     97.721  96.348237      0.222     5.2248     62.423    8.36993    8.35077 4.1027e+01     2.0449     1.6524    66.1602   997.2647  0.000e+00
      0.158    24.2916    24.2975     97.721  96.348237      0.224     5.2067     62.207    8.36992    8.35076 4.1065e+01     1.9961     1.6350    66.4475   997.2647  0.000e+00
      0.155    24.2910    24.2968     97.630  96.256641      0.221     5.1844     61.940    8.37002    8.35086 4.1234e+01     2.0046     1.6324    66.4919   997.2648  0.000e+00
      0.156    24.2896    24.2954     97.633  96.256641      0.222     5.1621     61.672    8.37024    8.35109 3.9686e+01     2.0406     1.6362    66.4282   997.2652  0.000e+00
      0.158    24.2875    24.2933     97.637  96.256642      0.224     5.1449     61.464    8.37057    8.35141 4.0033e+01     2.0088     1.6606    66.0240   997.2657  0.000e+00
      0.161    24.2847    24.2906     97.642  96.256643      0.229     5.1279     61.259    8.37099    8.35184 3.8921e+01     1.9749     1.6288    66.5511   997.2664  0.000e+00
      0.179    24.2814    24.2872     97.370  95.981858      0.255     5.1089     61.027    8.37153    8.35237 3.8144e+01     2.0237     1.6409    66.3498   997.2672  0.000e+00
      0.189    24.2741    24.2799     97.849  96.439839      0.269     5.0936     60.836    8.37265    8.35350 4.0024e+01     2.0809     1.6328    66.4845   997.2693  0.000e+00
      0.178    24.2694    24.2752     98.261  96.836764      0.254     5.0911     60.801    8.37338    8.35423 4.0439e+01     2.1254     1.6292    66.5437   997.2705  0.000e+00
      0.164    24.2984    24.3042     97.956  96.592493      0.233     5.0907     60.829    8.36886    8.34970 3.9180e+01     2.1509     1.6194    66.7081   997.2631  0.000e+00
      0.169    24.3561    24.3619     97.439  96.195557      0.240     5.1153     61.189    8.35990    8.34070 3.9189e+01     2.2229     1.6416    66.3379   997.2486  0.000e+00
      0.171    24.3796    24.3855     97.393  96.195549      0.243     5.1550     61.691    8.35624    8.33703 3.9714e+01     2.2123     1.6362    66.4282   997.2427  0.000e+00
      0.172    24.3797    24.3856     97.640  96.439806      0.244     5.1998     62.227    8.35622    8.33701 3.9814e+01     2.2590     1.6472    66.2461   997.2427  0.000e+00
      0.170    24.3769    24.3827     97.985  96.775664      0.241     5.2591     62.933    8.35665    8.33745 4.0448e+01     2.1890     1.6468    66.2520   997.2435  0.000e+00
      0.161    24.3731    24.3789     97.993  96.775666      0.229     5.3132     63.576    8.35725    8.33804 4.0905e+01     2.1678     1.6674    65.9115   997.2445  0.000e+00
      0.160    24.3696    24.3754     98.062  96.836732      0.227     5.3612     64.146    8.35778    8.33858 4.1008e+01     2.2017     1.6234    66.6414   997.2453  0.000e+00
      0.151    24.3710    24.3768     98.059  96.836732      0.215     5.3958     64.561    8.35757    8.33837 4.0914e+01     2.1805     1.6686    65.8922   997.2450  0.000e+00
      0.131    24.3764    24.3823     98.048  96.836730      0.187     5.4100     64.738    8.35672    8.33752 4.1386e+01     2.1827     1.6257    66.6029   997.2435  0.000e+00
      0.119    24.3846    24.3904     97.630  96.439804      0.169     5.4124     64.776    8.35547    8.33626 4.2433e+01     2.1890     1.6273    66.5763   997.2413  0.000e+00
      0.122    24.3867    24.3925     97.193  96.012356      0.174     5.4039     64.677    8.35515    8.33594 4.1481e+01     2.2081     1.6844    65.6331   997.2406  0.000e+00
      0.139    24.3807    24.3866     96.958  95.768107      0.197     5.4083     64.723    8.35608    8.33687 4.0199e+01     2.1254     1.6577    66.0714   997.2421  0.000e+00
      0.161    24.3563    24.3621     97.006  95.768115      0.229     5.4351     65.014    8.35988    8.34068 3.9723e+01     2.0576     1.6421    66.3305   997.2483  0.000e+00
      0.183    24.3312    24.3370     97.241  95.951311      0.260     5.5108     65.889    8.36377    8.34459 3.9568e+01     2.0830     1.6335    66.4727   997.2548  0.000e+00
      0.198    24.3165    24.3223     97.424  96.103974      0.282     5.5770     66.663    8.36605    8.34688 3.7348e+01     1.9961     1.6357    66.4356   997.2586  0.000e+00
      0.199    24.3090    24.3149     97.811  96.470361      0.283     5.6202     67.169    8.36720    8.34804 3.9100e+01     1.9580     1.6380    66.3986   997.2606  0.000e+00
      0.198    24.3003    24.3061     97.890  96.531428      0.282     5.6528     67.547    8.36856    8.34940 3.8841e+01     1.9283     1.6146    66.7880   997.2628  0.000e+00
      0.196    24.2966    24.3024     97.804  96.439832      0.279     5.6695     67.742    8.36915    8.34999 3.7883e+01     1.9198     1.6063    66.9272   997.2637  0.000e+00
      0.204    24.3037    24.3095     97.543  96.195573      0.290     5.6855     67.943    8.36805    8.34888 3.7229e+01     1.9007     1.6065    66.9228   997.2618  0.000e+00
      0.214    24.3070    24.3129     97.350  96.012382      0.304     5.6955     68.067    8.36753    8.34836 3.5447e+01     1.8795     1.6121    66.8295   997.2610  0.000e+00
      0.225    24.3080    24.3139     97.534  96.195572      0.319     5.6976     68.093    8.36737    8.34820 3.5831e+01     1.8944     1.6225    66.6563   997.2608  0.000e+00
      0.223    24.3115    24.3173     97.682  96.348231      0.318     5.6777     67.860    8.36682    8.34766 3.7400e+01     1.8583     1.6408    66.3512   997.2600  0.000e+00
      0.192    24.3183    24.3242     98.752  97.416882      0.272     5.6678     67.750    8.36574    8.34657 4.1901e+01     1.8392     1.6507    66.1884   997.2585  0.000e+00
      0.104    24.3567    24.3626     99.695  98.424507      0.147     5.6563     67.661    8.35975    8.34056 4.9587e+01     1.8710     1.6719    65.8375   997.2489  0.000e+00
     -0.005    24.5456    24.5515     99.315  98.424446     -0.007     5.6939     68.351    8.33049    8.31119 5.8094e+01     1.8180     1.6582    66.0640   997.2008  0.000e+00
     -0.097    24.7678    24.7737     98.688  98.241163     -0.139     5.8598     70.631    8.29631    8.27690 5.8214e+01     1.7862     1.6464    66.2594   997.1440  0.000e+00
     -0.163    24.9000    24.9060     97.600  97.416694     -0.232     6.1321     74.094    8.27609    8.25662 5.8763e+01     1.7587     1.6508    66.1854   997.1097  0.000e+00
     -0.158    24.9454    24.9514     96.625  96.531223     -0.224     6.4306     77.766    8.26919    8.24970 6.0388e+01     2.5007     1.6453    66.2772   997.0978  0.000e+00
     -0.115    24.8690    24.8750     96.253  96.012204     -0.164     6.7067     80.990    8.28086    8.26140 5.3396e+01     2.3862     1.6326    66.4875   997.1173  0.000e+00
     -0.109    24.6999    24.7058     97.164  96.592365     -0.156     6.9392     83.537    8.30676    8.28739 5.7736e+01     2.2590     1.6263    66.5926   997.1607  0.000e+00
     -0.150    24.5887    24.5946     97.721  96.928259     -0.214     7.1490     85.886    8.32387    8.30455 4.9349e+01     2.1403     1.6443    66.2935   997.1888  0.000e+00
     -0.205    24.5466    24.5525     98.050  97.172537     -0.292     7.3278     87.965    8.33036    8.31106 4.7052e+01     2.0936     1.6609    66.0196   997.1993  0.000e+00
     -0.252    24.5688    24.5747     98.098  97.264130     -0.359     7.4258     89.178    8.32693    8.30762 4.4331e+01     1.8668     2.2430    57.0781   997.1935  0.000e+00
     -0.283    24.5891    24.5950     97.720  96.928258     -0.403     7.3652     88.484    8.32381    8.30450 4.8386e+01     1.7672     1.7409    64.7122   997.1881  0.000e+00
     -0.306    24.5954    24.6013     97.461  96.683993     -0.435     7.2641     87.279    8.32284    8.30352 5.3445e+01     1.7968     1.6508    66.1854   997.1863  0.000e+00
     -0.384    24.5915    24.5974     98.054  97.264122     -0.546     7.1274     85.631    8.32342    8.30411 4.5934e+01     2.1975     1.6307    66.5200   997.1872  0.000e+00
     -0.490    24.5983    24.6042     98.533  97.752660     -0.696     6.9829     83.906    8.32238    8.30306 3.8592e+01     2.3692     1.6247    66.6192   997.1852  0.000e+00
     -0.545    24.6428    24.6487     98.352  97.661043     -0.775     6.8177     81.987    8.31552    8.29617 1.2088e+01     2.5621     1.6473    66.2446   997.1736  0.000e+00
     -0.569    24.7009    24.7068     98.421  97.844230     -0.809     6.6497     80.053    8.30658    8.28721 1.2261e+01     2.6766     1.6421    66.3305   997.1588  0.000e+00
     -0.565    24.7244    24.7304     98.620  98.088499     -0.804     6.5101     78.407    8.30296    8.28358 1.9169e+01     2.8144     1.6434    66.3083   997.1529  0.000e+00
     -0.528    24.7265    24.7324     98.770  98.241173     -0.751     6.4150     77.264    8.30265    8.28326 2.1644e+01     2.8992     1.6741    65.8019   997.1526  0.000e+00
     -0.497    24.7529    24.7588     98.809  98.332769     -0.707     6.3778     76.854    8.29859    8.27919 2.2893e+01     3.0497     1.6432    66.3113   997.1461  0.000e+00
     -0.476    24.8036    24.8095     98.709  98.332753     -0.678     6.3657     76.780    8.29082    8.27139 4.5556e+01     3.2023     1.6343    66.4593   997.1332  0.000e+00
     -0.456    24.8466    24.8525     98.532  98.241135     -0.648     6.3828     77.047    8.28424    8.26480 4.9496e+01     3.2341     1.6589    66.0522   997.1223  0.000e+00
     -0.440    24.8723    24.8782     98.328  98.088453     -0.626     6.4194     77.526    8.28032    8.26086 4.9022e+01     3.2617     1.6581    66.0655   997.1158  0.000e+00
     -0.443    24.8892    24.8951     98.295  98.088447     -0.631     6.4981     78.501    8.27774    8.25827 4.8798e+01     3.3083     1.6739    65.8049   997.1114  0.000e+00
     -0.443    24.8996    24.9055     98.182  97.996840     -0.631     6.6047     79.804    8.27615    8.25668 4.8253e+01     3.2045     1.6930    65.4910   997.1087  0.000e+00
     -0.441    24.9044    24.9104     98.326  98.149512     -0.628     6.6935     80.884    8.27541    8.25594 4.8832e+01     3.2808     1.6609    66.0196   997.1076  0.000e+00
     -0.445    24.9084    24.9144     98.318  98.149511     -0.632     6.7362     81.406    8.27480    8.25532 4.5182e+01     3.3550     1.6516    66.1736   997.1065  0.000e+00
     -0.460    24.9112    24.9172     98.404  98.241114     -0.654     6.7223     81.243    8.27437    8.25489 4.3716e+01     3.3401     1.6387    66.3868   997.1058  0.000e+00
     -0.507    24.9130    24.9190     98.492  98.332718     -0.721     6.6682     80.592    8.27409    8.25461 4.1930e+01     3.3592     1.6446    66.2891   997.1051  0.000e+00
     -0.540    24.9128    24.9188     98.554  98.393788     -0.768     6.5803     79.529    8.27412    8.25464 1.4644e+01     3.2787     1.6315    66.5067   997.1050  0.000e+00
     -0.573    24.9350    24.9410     98.449  98.332711     -0.815     6.4827     78.381    8.27074    8.25125 1.0212e+01     3.2363     1.6336    66.4712   997.0992  0.000e+00
     -0.598    24.9647    24.9707     98.054  97.996818     -0.851     6.3812     77.196    8.26621    8.24671 8.1416e+00     3.1811     1.6437    66.3039   997.0913  0.000e+00
     -0.618    24.9733    24.9793     97.885  97.844143     -0.879     6.2898     76.102    8.26491    8.24540 6.8451e+00     3.2617     1.6435    66.3068   997.0890  0.000e+00
     -0.619    24.9724    24.9784     97.703  97.660938     -0.881     6.2012     75.030    8.26506    8.24555 6.5146e+00     3.3550     1.6385    66.3897   997.0892  0.000e+00
     -0.614    24.9647    24.9706     97.657  97.599872     -0.873     6.1387     74.262    8.26623    8.24673 7.5435e+00     3.4164     1.6499    66.2002   997.0912  0.000e+00
     -0.613    24.9352    24.9411     97.959  97.844155     -0.871     6.0858     73.582    8.27072    8.25123 9.6615e+00     3.3550     1.6427    66.3201   997.0988  0.000e+00
     -0.602    24.9102    24.9161     98.161  97.996835     -0.856     6.0377     72.968    8.27454    8.25506 9.7460e+00     3.4588     1.6513    66.1780   997.1053  0.000e+00
     -0.594    24.8930    24.8989     97.859  97.660963     -0.845     5.9908     72.377    8.27717    8.25770 1.2644e+01     3.4186     1.6665    65.9263   997.1097  0.000e+00
     -0.572    24.8591    24.8651     97.588  97.325102     -0.814     5.9647     72.018    8.28235    8.26289 1.5454e+01     3.3295     1.6435    66.3068   997.1183  0.000e+00
     -0.539    24.8121    24.8180     97.374  97.019784     -0.767     5.9471     71.742    8.28954    8.27011 1.4715e+01     3.4800     1.6395    66.3735   997.1303  0.000e+00
     -0.479    24.7215    24.7274     97.060  96.531290     -0.681     5.9465     71.615    8.30345    8.28406 1.6584e+01     3.4652     1.6401    66.3631   997.1535  0.000e+00
     -0.374    24.6117    24.6176     96.845  96.103877     -0.532     5.9734     71.793    8.32034    8.30102 1.6619e+01     3.5267     1.6537    66.1380   997.1817  0.000e+00
     -0.305    24.5283    24.5341     97.254  96.348159     -0.434     6.0237     72.285    8.33321    8.31393 2.5502e+01     3.4398     1.6770    65.7545   997.2032  0.000e+00
     -0.281    24.4831    24.4889     98.022  97.019891     -0.399     6.1101     73.261    8.34019    8.32093 2.7874e+01     3.4567     1.6798    65.7072   997.2149  0.000e+00
     -0.219    24.4517    24.4576     98.238  97.172567     -0.312     6.2461     74.848    8.34503    8.32579 2.7714e+01     3.5436     1.6525    66.1573   997.2231  0.000e+00
     -0.066    24.4633    24.4692     97.228  96.195521     -0.093     6.4207     76.957    8.34327    8.32402 3.6502e+01     3.9507     1.6546    66.1232   997.2206  0.000e+00
      0.118    24.4665    24.4724     97.036  96.012331      0.168     6.6405     79.596    8.34277    8.32352 3.3790e+01     3.7980     1.6444    66.2920   997.2205  0.000e+00
      0.204    24.4096    24.4154     97.704  96.561926      0.290     6.8963     82.575    8.35158    8.33236 3.8031e+01     3.7874     1.6428    66.3187   997.2354  0.000e+00
      0.220    24.3787    24.3846     98.878  97.661134      0.313     7.1322     85.350    8.35635    8.33714 4.0374e+01     3.5224     1.6440    66.2994   997.2436  0.000e+00
      0.221    24.4608    24.4667     98.807  97.752711      0.315     7.3071     87.577    8.34362    8.32437 4.1348e+01     3.2447     1.6357    66.4371   997.2230  0.000e+00
      0.241    24.5610    24.5669     98.699  97.844282      0.343     7.4500     89.456    8.32812    8.30882 4.3347e+01     3.1218     1.6461    66.2639   997.1978  0.000e+00
      0.299    24.6302    24.6361     98.131  97.416784      0.426     7.5393     90.644    8.31747    8.29813 3.8734e+01     3.0921     1.6624    65.9944   997.1804  0.000e+00
      0.356    24.6750    24.6809     98.288  97.661041      0.507     7.5558     90.918    8.31057    8.29121 3.9180e+01     3.1939     1.6719    65.8375   997.1694  0.000e+00
      0.397    24.6932    24.6991     98.744  98.149587      0.565     7.5171     90.483    8.30775    8.28838 3.6881e+01     3.3634     1.6422    66.3290   997.1651  0.000e+00
      0.410    24.7349    24.7408     98.937  98.424389      0.583     7.4358     89.573    8.30135    8.28196 3.3929e+01     3.3189     1.6331    66.4801   997.1547  0.000e+00
      0.416    24.8395    24.8455     98.883  98.577032      0.591     7.3200     88.349    8.28531    8.26587 3.3474e+01     3.2384     1.6393    66.3764   997.1281  0.000e+00
      0.417    24.9390    24.9450     98.594  98.485394      0.593     7.2036     87.104    8.27013    8.25064 3.0986e+01     3.2129     1.6791    65.7190   997.1026  0.000e+00
      0.422    25.0225    25.0285     98.429  98.485368      0.601     7.0805     85.747    8.25741    8.23788 3.0521e+01     3.1451     1.6478    66.2358   997.0812  0.000e+00
      0.420    25.0754    25.0814     98.325  98.485351      0.598     6.9554     84.314    8.24938    8.22982 3.0894e+01     3.0624     1.6415    66.3409   997.0676  0.000e+00
      0.450    25.0962    25.1022     97.949  98.149459      0.640     6.8485     83.051    8.24623    8.22666 3.1336e+01     3.0518     1.6557    66.1055   997.0622  0.000e+00
      0.476    25.0979    25.1039     98.037  98.241063      0.677     6.7572     81.945    8.24597    8.22640 3.2033e+01     3.0730     1.6359    66.4327   997.0619  0.000e+00
      0.485    25.0925    25.0985     98.383  98.576952      0.690     6.6809     81.012    8.24679    8.22722 3.2011e+01     3.0497     1.6365    66.4223   997.0635  0.000e+00
      0.493    25.0882    25.0942     98.392  98.576953      0.701     6.6280     80.364    8.24744    8.22787 3.2670e+01     2.9225     1.6357    66.4371   997.0646  0.000e+00
      0.509    25.0837    25.0897     98.492  98.668561      0.724     6.6001     80.019    8.24812    8.22856 3.2911e+01     2.9395     1.6322    66.4949   997.0659  0.000e+00
      0.552    25.0831    25.0891     98.066  98.241069      0.785     6.5568     79.493    8.24821    8.22865 3.3504e+01     2.9373     1.6398    66.3690   997.0661  0.000e+00
      0.608    25.0816    25.0876     97.856  98.027326      0.865     6.5186     79.028    8.24844    8.22888 3.2543e+01     2.9373     1.6276    66.5704   997.0666  0.000e+00
      0.672    25.0801    25.0861     97.676  97.844121      0.955     6.4991     78.790    8.24867    8.22911 3.3214e+01     2.9670     1.6313    66.5097   997.0672  0.000e+00
      0.722    25.0747    25.0807     97.747  97.905192      1.027     6.5027     78.826    8.24949    8.22994 3.3321e+01     3.0836     1.6415    66.3394   997.0689  0.000e+00
      0.773    25.0399    25.0459     97.754  97.844134      1.099     6.5170     78.948    8.25479    8.23524 3.1668e+01     3.3189     1.6452    66.2787   997.0781  0.000e+00
      0.849    24.9799    24.9859     97.780  97.752551      1.207     6.5159     78.848    8.26391    8.24439 3.1901e+01     3.3719     1.6447    66.2876   997.0938  0.000e+00
      0.934    24.8672    24.8731     97.511  97.264047      1.329     6.5110     78.624    8.28112    8.26166 3.0852e+01     3.3910     1.6435    66.3068   997.1229  0.000e+00
      1.013    24.7222    24.7281     97.305  96.775564      1.441     6.5287     78.628    8.30333    8.28395 2.9659e+01     3.3380     1.6305    66.5230   997.1600  0.000e+00
      1.094    24.5804    24.5863     97.244  96.439751      1.555     6.5776     79.008    8.32516    8.30585 2.8795e+01     3.2511     1.6239    66.6326   997.1962  0.000e+00
      1.160    24.4653    24.4712     97.286  96.256595      1.649     6.6245     79.403    8.34295    8.32370 2.8968e+01     3.2002     1.6491    66.2150   997.2255  0.000e+00
      1.221    24.3830    24.3889     97.386  96.195558      1.737     6.6501     79.587    8.35571    8.33651 2.8234e+01     3.0794     1.6318    66.5008   997.2465  0.000e+00
      1.276    24.3247    24.3306     97.408  96.103981      1.815     6.6570     79.584    8.36477    8.34560 2.7424e+01     2.9628     1.6326    66.4875   997.2613  0.000e+00
      1.331    24.2804    24.2862     97.403  96.012400      1.893     6.6604     79.559    8.37168    8.35253 2.7330e+01     2.8547     1.6258    66.6015   997.2726  0.000e+00
      1.373    24.2448    24.2506     97.566  96.104007      1.952     6.6848     79.798    8.37722    8.35809 2.7217e+01     2.7360     1.6325    66.4889   997.2817  0.000e+00
      1.410    24.2290    24.2348     97.939  96.439864      2.006     6.7154     80.139    8.37968    8.36056 2.6601e+01     2.7084     1.6216    66.6711   997.2859  0.000e+00
      1.451    24.2285    24.2344     97.506  96.012418      2.063     6.7450     80.492    8.37976    8.36064 2.7192e+01     2.6681     1.6421    66.3305   997.2861  0.000e+00
      1.505    24.2098    24.2156     97.388  95.859766      2.140     6.7629     80.677    8.38268    8.36357 2.6864e+01     2.6766     1.6228    66.6518   997.2909  0.000e+00
      1.566    24.1821    24.1879     97.101  95.523933      2.227     6.7746     80.775    8.38703    8.36793 2.6846e+01     2.7360     1.6462    66.2624   997.2980  0.000e+00
      1.634    24.1544    24.1602     97.156  95.523942      2.324     6.7992     81.026    8.39135    8.37227 2.6558e+01     2.6957     1.6199    66.6992   997.3052  0.000e+00
      1.689    24.1021    24.1079     97.415  95.676614      2.402     6.8227     81.227    8.39954    8.38049 2.6987e+01     2.5367     1.5994    67.0427   997.3185  0.000e+00
      1.745    24.0266    24.0324     97.316  95.432390      2.482     6.8368     81.280    8.41139    8.39238 2.6741e+01     2.4689     1.5718    67.5061   997.3374  0.000e+00
      1.818    23.9035    23.9093     97.061  94.943942      2.585     6.8199     80.893    8.43078    8.41184 2.7430e+01     2.4604     1.5464    67.9370   997.3679  0.000e+00
      1.888    23.7282    23.7339     97.004  94.547110      2.685     6.7863     80.230    8.45853    8.43970 2.7330e+01     2.3798     1.5409    68.0303   997.4112  0.000e+00
      1.941    23.5766    23.5823     97.400  94.638746      2.760     6.7599     79.691    8.48263    8.46389 2.7211e+01     2.3565     1.5333    68.1591   997.4484  0.000e+00
      2.001    23.5024    23.5080     97.109  94.211359      2.846     6.7318     79.249    8.49450    8.47580 2.7791e+01     2.4010     1.5513    67.8526   997.4666  0.000e+00
      2.066    23.3735    23.3791     96.958  93.814526      2.939     6.7055     78.747    8.51517    8.49655 2.7854e+01     2.3819     1.5278    68.2524   997.4979  0.000e+00
      2.113    23.2428    23.2484     97.474  94.058795      3.006     6.6814     78.271    8.53619    8.51766 2.8027e+01     2.3226     1.5317    68.1872   997.5297  0.000e+00
      2.153    23.1946    23.2002     97.476  93.967224      3.062     6.6584     77.930    8.54397    8.52546 2.8117e+01     2.3268     1.5307    68.2035   997.5413  0.000e+00
      2.215    23.1342    23.1397     96.996  93.387207      3.151     6.6506     77.751    8.55376    8.53529 2.9094e+01     2.3353     1.5331    68.1621   997.5559  0.000e+00
      2.281    23.0065    23.0121     96.586  92.746174      3.245     6.6587     77.657    8.57448    8.55609 2.8815e+01     2.4604     1.5389    68.0643   997.5864  0.000e+00
      2.336    22.9119    22.9174     96.936  92.898837      3.323     6.6718     77.671    8.58988    8.57156 2.8182e+01     2.5854     1.5453    67.9548   997.6091  0.000e+00
      2.386    22.8722    22.8777     96.921  92.807269      3.393     6.7097     78.053    8.59637    8.57807 2.9107e+01     2.6978     1.5307    68.2035   997.6187  0.000e+00
      2.429    22.8101    22.8155     97.239  92.990450      3.454     6.7519     78.451    8.60652    8.58826 2.8697e+01     2.7232     1.5366    68.1028   997.6336  0.000e+00
      2.477    22.7432    22.7487     97.183  92.807309      3.523     6.7878     78.768    8.61748    8.59927 2.8631e+01     2.7381     1.5285    68.2405   997.6495  0.000e+00
      2.522    22.6884    22.6939     97.231  92.746272      3.587     6.8267     79.136    8.62648    8.60830 2.9748e+01     2.7381     1.5420    68.0110   997.6625  0.000e+00
      2.588    22.6138    22.6192     96.678  92.074715      3.681     6.8882     79.736    8.63877    8.62064 2.9919e+01     2.7444     1.5403    68.0392   997.6800  0.000e+00
      2.655    22.5249    22.5303     96.602  91.830537      3.776     6.9596     80.425    8.65346    8.63539 3.0654e+01     2.6575     1.5340    68.1472   997.7010  0.000e+00
      2.711    22.4668    22.4722     96.720  91.830555      3.856     7.0303     81.153    8.66307    8.64503 3.0633e+01     2.6278     1.5244    68.3101   997.7148  0.000e+00
      2.783    22.4357    22.4411     96.591  91.647413      3.959     7.0814     81.694    8.66822    8.65021 3.0654e+01     2.5388     1.5220    68.3516   997.7222  0.000e+00
      2.863    22.3747    22.3801     96.200  91.159035      4.072     7.1098     81.925    8.67836    8.66039 3.1107e+01     2.6236     1.5356    68.1191   997.7366  0.000e+00
      2.947    22.3140    22.3193     96.323  91.159053      4.192     7.1332     82.100    8.68845    8.67053 3.0201e+01     2.6554     1.5297    68.2213   997.7510  0.000e+00
      3.028    22.2664    22.2718     95.904  90.670683      4.307     7.1636     82.374    8.69639    8.67849 3.1100e+01     2.5558     1.5144    68.4819   997.7621  0.000e+00
      3.093    22.2129    22.2182     94.623  89.358221      4.400     7.1485     82.116    8.70535    8.68749 3.0725e+01     2.6469     1.5292    68.2287   997.7742  0.000e+00
      3.154    22.0966    22.1019     94.597  89.114083      4.486     7.0484     80.785    8.72483    8.70705 3.0830e+01     2.6172     1.5370    68.0969   997.8011  0.000e+00
      3.216    21.9454    21.9507     94.804  89.022563      4.575     7.0607     80.691    8.75025    8.73258 3.0979e+01     2.5134     1.5302    68.2124   997.8358  0.000e+00
      3.298    21.8408    21.8460     95.114  89.114158      4.690     7.2111     82.244    8.76793    8.75033 3.1632e+01     2.4031     1.5235    68.3264   997.8599  0.000e+00
      3.366    21.7755    21.7807     94.986  88.870008      4.787     7.4017     84.312    8.77899    8.76144 3.1596e+01     2.3607     1.5319    68.1828   997.8748  0.000e+00
      3.437    21.7265    21.7317     95.085  88.870022      4.889     7.5836     86.302    8.78731    8.76979 3.1143e+01     2.3438     1.5319    68.1828   997.8862  0.000e+00
      3.507    21.6898    21.6950     95.160  88.870034      4.989     7.7575     88.218    8.79355    8.77606 3.1466e+01     2.5367     1.5300    68.2154   997.8947  0.000e+00
      3.561    21.6615    21.6667     94.956  88.625875      5.065     7.8897     89.672    8.79837    8.78090 3.2365e+01     2.4901     1.5481    67.9074   997.9012  0.000e+00
      3.600    21.6350    21.6402     95.174  88.778487      5.120     7.9948     90.820    8.80288    8.78542 3.1365e+01     2.4328     1.5463    67.9385   997.9074  0.000e+00
      3.651    21.6111    21.6163     95.059  88.625890      5.194     8.0434     91.330    8.80695    8.78951 3.1509e+01     2.4773     1.5473    67.9207   997.9129  0.000e+00
      3.723    21.5921    21.5972     94.836  88.381732      5.295     8.0337     91.187    8.81021    8.79279 3.1887e+01     2.6321     1.5675    67.5787   997.9174  0.000e+00
      3.807    21.5727    21.5779     95.137  88.625903      5.415     7.9811     90.555    8.81350    8.79609 3.2129e+01     3.0667     1.5737    67.4736   997.9222  0.000e+00
      3.889    21.5514    21.5566     95.181  88.625910      5.531     7.9347     89.991    8.81714    8.79975 3.0668e+01     3.0327     1.5807    67.3566   997.9273  0.000e+00
      3.974    21.5271    21.5322     95.034  88.442794      5.653     7.9053     89.615    8.82132    8.80394 3.0556e+01     3.0327     1.5883    67.2278   997.9330  0.000e+00
      4.060    21.5015    21.5067     94.758  88.137600      5.775     7.8719     89.193    8.82569    8.80833 3.0111e+01     3.0561     1.6092    66.8783   997.9390  0.000e+00
      4.144    21.4735    21.4786     95.045  88.351250      5.894     7.8420     88.806    8.83049    8.81315 2.8690e+01     3.0539     1.6478    66.2358   997.9457  0.000e+00
      4.226    21.4417    21.4469     95.044  88.290219      6.011     7.8195     88.497    8.83594    8.81863 2.8461e+01     3.4122     1.6430    66.3157   997.9531  0.000e+00
      4.301    21.4086    21.4138     94.849  88.046069      6.117     7.8045     88.270    8.84162    8.82433 2.7248e+01     3.7705     1.6537    66.1380   997.9607  0.000e+00
      4.357    21.3773    21.3824     94.913  88.046078      6.197     7.7890     88.042    8.84702    8.82975 2.6497e+01     4.0227     1.6916    65.5147   997.9679  0.000e+00
      4.422    21.3487    21.3539     94.873  87.954528      6.289     7.7756     87.840    8.85193    8.83468 2.5637e+01     4.3238     1.7059    65.2807   997.9744  0.000e+00
      4.482    21.3248    21.3299     95.021  88.046094      6.375     7.7497     87.508    8.85605    8.83882 2.4360e+01     4.4997     1.7112    65.1949   997.9800  0.000e+00
      4.528    21.2989    21.3040     95.173  88.137662      6.441     7.7248     87.182    8.86052    8.84331 2.3890e+01     4.5951     1.7136    65.1549   997.9860  0.000e+00
      4.561    21.2713    21.2764     95.032  87.954551      6.488     7.7034     86.894    8.86528    8.84808 2.3365e+01     5.0996     1.7078    65.2497   997.9921  0.000e+00
      4.611    21.2462    21.2513     94.918  87.801961      6.558     7.6914     86.716    8.86962    8.85245 2.3542e+01     5.8988     1.7327    64.8454   997.9978  0.000e+00
      4.666    21.2215    21.2266     94.771  87.618852      6.636     7.6695     86.428    8.87389    8.85674 2.4517e+01     6.2529     1.7384    64.7522   998.0034  0.000e+00
      4.712    21.1927    21.1978     94.764  87.557822      6.702     7.6372     86.015    8.87886    8.86173 2.5403e+01     6.0918     1.7418    64.6974   998.0099  0.000e+00
      4.783    21.1641    21.1691     94.823  87.557831      6.803     7.5963     85.507    8.88383    8.86672 2.6723e+01     5.9667     1.7316    64.8617   998.0165  0.000e+00
      4.848    21.1305    21.1356     94.892  87.557841      6.895     7.5611     85.055    8.88964    8.87255 2.7714e+01     6.1151     1.7173    65.0942   998.0242  0.000e+00
      4.906    21.0838    21.0889     94.988  87.557855      6.978     7.5111     84.416    8.89776    8.88070 2.8066e+01     6.5221     1.7315    64.8647   998.0347  0.000e+00
      4.963    21.0223    21.0274     94.850  87.313721      7.059     7.4687     83.839    8.90846    8.89145 2.8487e+01     6.4331     1.6994    65.3874   998.0482  0.000e+00
      5.016    20.9556    20.9606     94.788  87.130629      7.134     7.4199     83.181    8.92010    8.90313 2.9328e+01     6.3207     1.7018    65.3474   998.0629  0.000e+00
      5.057    20.8775    20.8825     94.883  87.069614      7.192     7.3883     82.701    8.93375    8.91684 2.8651e+01     6.3907     1.6834    65.6494   998.0800  0.000e+00
      5.089    20.7998    20.8048     94.944  86.978081      7.238     7.3522     82.171    8.94736    8.93051 2.8124e+01     6.2168     1.6849    65.6243   998.0968  0.000e+00
      5.142    20.7315    20.7365     94.819  86.733956      7.314     7.3156     81.653    8.95936    8.94257 2.7124e+01     6.2211     1.6810    65.6879   998.1117  0.000e+00
      5.209    20.6351    20.6400     94.384  86.154152      7.410     7.2760     81.057    8.97637    8.95964 2.6595e+01     6.1045     1.6931    65.4895   998.1324  0.000e+00
      5.265    20.4752    20.4802     94.179  85.665930      7.489     7.2234     80.218    9.00468    8.98807 2.4517e+01     5.8861     1.6761    65.7694   998.1665  0.000e+00
      5.317    20.2745    20.2794     93.788  84.933607      7.563     7.1586     79.184    9.04046    9.02400 2.4737e+01     5.6953     1.6589    66.0522   998.2088  0.000e+00
      5.401    20.0568    20.0616     93.327  84.109773      7.681     7.0526     77.676    9.07956    9.06326 2.3516e+01     5.5088     1.6377    66.4031   998.2543  0.000e+00
      5.463    19.7921    19.7968     92.857  83.194445      7.771     6.9223     75.840    9.12751    9.11141 2.3456e+01     5.4876     1.6283    66.5600   998.3089  0.000e+00
      5.518    19.5114    19.5160     93.169  82.950422      7.849     6.7621     73.671    9.17884    9.16295 2.3424e+01     5.5321     1.6184    66.7244   998.3661  0.000e+00
      5.575    19.2850    19.2897     92.819  82.218201      7.930     6.5949     71.523    9.22062    9.20490 2.3689e+01     5.6105     1.5992    67.0457   998.4115  0.000e+00
      5.630    19.0729    19.0774     93.266  82.218258      8.008     6.5031     70.227    9.26008    9.24452 2.3923e+01     5.9179     1.6072    66.9109   998.4539  0.000e+00
      5.713    18.8951    18.8996     92.879  81.547069      8.125     6.5060     70.006    9.29339    9.27796 2.4149e+01     5.6720     1.5999    67.0338   998.4889  0.000e+00
      5.805    18.6884    18.6929     92.306  80.662347      8.257     6.6317     71.061    9.33240    9.31713 2.3814e+01     5.2417     1.6136    66.8043   998.5291  0.000e+00
      5.860    18.3944    18.3988     92.264  80.082763      8.335     6.8416     72.873    9.38840    9.37334 2.3403e+01     4.9915     1.6828    65.6583   998.5854  0.000e+00
      5.901    18.1160    18.1204     92.860  80.082835      8.393     7.0668     74.845    9.44194    9.42708 2.3912e+01     4.9385     1.6512    66.1795   998.6380  0.000e+00
      5.964    17.9118    17.9161     92.911  79.747303      8.483     7.2623     76.593    9.48158    9.46688 2.3381e+01     4.8643     1.7522    64.5286   998.6761  0.000e+00
      6.030    17.7255    17.7297     92.531  79.076195      8.577     7.3858     77.598    9.51803    9.50346 2.2904e+01     4.7096     1.9043    62.1211   998.7104  0.000e+00
      6.072    17.4789    17.4831     92.781  78.832207      8.636     7.3751     77.091    9.56663    9.55224 2.2186e+01     4.4361     1.9994    60.6627   998.7552  0.000e+00
      6.105    17.2354    17.2395     93.243  78.771257      8.683     7.2107     74.994    9.61507    9.60084 2.2643e+01     4.1754     2.0863    59.3582   998.7988  0.000e+00
      6.136    17.0428    17.0469     92.982  78.191697      8.727     6.9059     71.536    9.65371    9.63962 2.2519e+01     4.0715     2.2224    57.3727   998.8326  0.000e+00
      6.170    16.8834    16.8875     93.226  78.100222      8.775     6.4657     66.754    9.68588    9.67190 2.2171e+01     4.0842     2.3466    55.6182   998.8605  0.000e+00
      6.213    16.7281    16.7321     93.281  77.856221      8.836     5.9173     60.894    9.71743    9.70356 2.1669e+01     4.2538     2.4371    54.3744   998.8873  0.000e+00
      6.286    16.5179    16.5219     93.349  77.520724      8.941     5.3107     54.411    9.76041    9.74668 2.0641e+01     4.8198     2.5808    52.4555   998.9233  0.000e+00
      6.343    16.2779    16.2819     93.597  77.276751      9.022     4.6744     47.650    9.80990    9.79633 1.9694e+01     7.1623     2.7566    50.2005   998.9637  0.000e+00
      6.414    15.9733    15.9772     93.511  76.636253      9.122     4.0084     40.598    9.87339    9.86002 1.7239e+01    10.3824     2.9622    47.6850   999.0140  0.000e+00
      6.498    15.6824    15.6862     93.430  76.026274      9.243     3.3206     33.424    9.93471    9.92152 1.6157e+01    13.1701     2.9963    47.2807   999.0610  0.000e+00
      6.585    15.3474    15.3511     93.034  75.080810      9.366     2.6114     26.098   10.00619    9.99321 1.4627e+01    17.2127     2.9661    47.6391   999.1138  0.000e+00
      6.639    14.9609    14.9645     93.629  74.836900      9.443     1.8866     18.698   10.08978   10.07702 1.4185e+01    20.3396     2.8029    49.6231   999.1732  0.000e+00
      6.682    14.6190    14.6225     93.706  74.257483      9.504     1.1883     11.690   10.16480   10.15223 1.3352e+01    22.6185     2.6972    50.9512   999.2242  0.000e+00
      6.727    14.3811    14.3846     94.350  74.318540      9.568     0.5791      5.668   10.21757   10.20513 1.2816e+01    24.7575     2.6369    51.7256   999.2591  0.000e+00
      6.791    14.2506    14.2541     93.420  73.342604      9.658     0.0784      0.765   10.24676   10.23439 1.1632e+01    24.8656     2.5970    52.2438   999.2777  0.000e+00
      6.850    14.0598    14.0632     93.252  72.854683      9.743    -0.3033     -2.948   10.28968   10.27741 1.0770e+01    24.9652     2.4876    53.6919   999.3047  0.000e+00
      6.900    13.8182    13.8215     93.519  72.610762      9.815    -0.5761     -5.569   10.34448   10.33233 1.0252e+01    24.4373     2.3989    54.8956   999.3385  0.000e+00
      6.955    13.6247    13.6280     93.671  72.366832      9.893    -0.7178     -6.910   10.38873   10.37667 9.2903e+00    24.4797     2.3053    56.1956   999.3650  0.000e+00
      7.014    13.4752    13.4785     93.084  71.634956      9.976    -0.7435     -7.133   10.42318   10.41119 8.7751e+00    23.5152     2.3656    55.3546   999.3850  0.000e+00
      7.077    13.3008    13.3040     93.190  71.391032     10.066    -0.6971     -6.662   10.46362   10.45171 8.3974e+00    22.3387     2.2520    56.9493   999.4083  0.000e+00
      7.132    13.1408    13.1439     92.902  70.872655     10.144    -0.5899     -5.618   10.50097   10.48912 7.8324e+00    20.3332     2.2348    57.1950   999.4291  0.000e+00
      7.189    12.9932    12.9963     93.182  70.811700     10.226    -0.4585     -4.352   10.53561   10.52382 7.6060e+00    18.3872     2.2081    57.5785   999.4483  0.000e+00
      7.253    12.8460    12.8491     92.779  70.232346     10.316    -0.3124     -2.955   10.57038   10.55866 7.1366e+00    16.9901     2.1282    58.7393   999.4670  0.000e+00
      7.315    12.6882    12.6912     92.602  69.805475     10.404    -0.1736     -1.636   10.60790   10.59623 6.8091e+00    15.3387     2.0764    59.5063   999.4867  0.000e+00
      7.364    12.5352    12.5382     92.979  69.805510     10.474    -0.0234     -0.220   10.64447   10.63286 6.3699e+00    13.8315     2.0288    60.2185   999.5057  0.000e+00
      7.417    12.4152    12.4181     93.278  69.805538     10.549     0.1165      1.092   10.67332   10.66175 6.2385e+00    12.6783     1.9752    61.0299   999.5205  0.000e+00
      7.470    12.3314    12.3344     92.834  69.317674     10.624     0.2415      2.258   10.69354   10.68200 5.9495e+00    11.9724     1.9432    61.5200   999.5305  0.000e+00
      7.529    12.2357    12.2386     92.868  69.165235     10.709     0.3619      3.377   10.71674   10.70523 5.8776e+00    11.2855     1.8897    62.3491   999.5421  0.000e+00
      7.586    12.1332    12.1362     93.247  69.256735     10.790     0.4739      4.412   10.74165   10.73018 5.7722e+00    10.5775     1.8725    62.6171   999.5544  0.000e+00
      7.665    12.0303    12.0332     93.259  69.073805     10.902     0.5753      5.343   10.76678   10.75534 5.4910e+00     9.5472     1.9020    62.1581   999.5667  0.000e+00
      7.742    11.9236    11.9264     93.529  69.073830     11.012     0.6639      6.152   10.79297   10.78156 5.4734e+00     8.7459     1.9066    62.0856   999.5793  0.000e+00
      7.811    11.8202    11.8231     93.709  69.012870     11.110     0.7389      6.830   10.81841   10.80703 5.3298e+00     8.1205     1.9162    61.9375   999.5913  0.000e+00
      7.878    11.7340    11.7368     93.929  69.012889     11.206     0.8008      7.388   10.83973   10.82837 5.1545e+00     7.4146     1.8901    62.3432   999.6013  0.000e+00
      7.940    11.6585    11.6613     94.039  68.951923     11.293     0.8676      7.990   10.85845   10.84711 4.8842e+00     6.8062     1.8888    62.3624   999.6099  0.000e+00
      7.998    11.5796    11.5824     94.200  68.921449     11.376     0.9209      8.466   10.87809   10.86677 4.7084e+00     6.3673     1.8841    62.4365   999.6189  0.000e+00
      8.061    11.5052    11.5079     94.267  68.829991     11.465     0.9689      8.892   10.89668   10.88537 4.2833e+00     6.1448     1.8883    62.3713   999.6273  0.000e+00
      8.135    11.4348    11.4375     94.324  68.738532     11.571     1.0037      9.196   10.91430   10.90302 4.1206e+00     5.8183     1.8987    62.2084   999.6352  0.000e+00
      8.203    11.3526    11.3553     94.453  68.677568     11.668     1.0189      9.318   10.93494   10.92367 3.7752e+00     5.6699     1.9449    61.4948   999.6443  0.000e+00
      8.269    11.2693    11.2720     94.754  68.738570     11.762     1.0106      9.224   10.95592   10.94467 3.5651e+00     5.4113     2.0356    60.1163   999.6535  0.000e+00
      8.339    11.2005    11.2032     94.934  68.738586     11.860     0.9683      8.825   10.97331   10.96208 3.4359e+00     5.5300     2.3320    55.8225   999.6611  0.000e+00
      8.401    11.1401    11.1427     95.220  68.830075     11.949     0.8902      8.101   10.98862   10.97740 3.1415e+00     6.2910     2.5591    52.7413   999.6677  0.000e+00
      8.463    11.0807    11.0833     95.250  68.738614     12.037     0.7940      7.216   11.00372   10.99251 3.0242e+00     6.7362     2.8562    48.9657   999.6741  0.000e+00
      8.520    11.0192    11.0218     95.328  68.677645     12.118     0.7009      6.361   11.01938   11.00818 2.8961e+00     7.3679     3.1441    45.5647   999.6807  0.000e+00
      8.584    10.9595    10.9622     95.359  68.586184     12.209     0.5980      5.420   11.03460   11.02342 2.6297e+00     9.1126     3.3331    43.4622   999.6870  0.000e+00
      8.652    10.9034    10.9060     95.381  68.494723     12.306     0.5170      4.679   11.04898   11.03780 2.4822e+00    11.9575     3.3796    42.9603   999.6930  0.000e+00
      8.707    10.8431    10.8457     95.541  68.494737     12.384     0.4600      4.158   11.06444   11.05327 2.2586e+00    13.9629     3.3660    43.1069   999.6993  0.000e+00
      8.758    10.7874    10.7900     95.818  68.586224     12.457     0.4110      3.710   11.07875   11.06759 2.0774e+00    15.7394     3.3304    43.4918   999.7051  0.000e+00
      8.821    10.7420    10.7446     95.598  68.342304     12.546     0.3848      3.470   11.09047   11.07932 1.9292e+00    17.0347     3.2172    44.7400   999.7098  0.000e+00
      8.884    10.7037    10.7063     95.573  68.250840     12.635     0.3771      3.398   11.10036   11.08921 1.7760e+00    17.9187     3.2165    44.7474   999.7138  0.000e+00
      8.936    10.6684    10.6709     95.582  68.189867     12.710     0.3836      3.453   11.10949   11.09835 1.6305e+00    18.1985     3.1749    45.2153   999.7175  0.000e+00
      9.006    10.6344    10.6370     95.545  68.098403     12.809     0.3838      3.452   11.11829   11.10715 1.4994e+00    18.6543     3.0987    46.0859   999.7211  0.000e+00
      9.073    10.5990    10.6016     95.511  68.006939     12.904     0.3987      3.583   11.12746   11.11632 1.3848e+00    19.0486     3.0373    46.7981   999.7248  0.000e+00
      9.136    10.5575    10.5601     95.623  68.006949     12.995     0.4050      3.636   11.13824   11.12711 1.3349e+00    19.3114     3.0396    46.7714   999.7291  0.000e+00
      9.203    10.5176    10.5201     95.859  68.098430     13.090     0.4086      3.665   11.14862   11.13749 1.2318e+00    19.3560     3.0505    46.6441   999.7333  0.000e+00
      9.278    10.4766    10.4791     96.099  68.189912     13.197     0.4191      3.755   11.15929   11.14817 1.1035e+00    19.4556     3.0788    46.3154   999.7377  0.000e+00
      9.345    10.4345    10.4370     96.213  68.189921     13.292     0.4274      3.826   11.17027   11.15916 1.0425e+00    19.2690     3.1157    45.8904   999.7420  0.000e+00
      9.406    10.3959    10.3984     96.404  68.250912     13.378     0.4245      3.797   11.18036   11.16925 9.6970e-01    19.3220     3.1600    45.3841   999.7459  0.000e+00
      9.462    10.3571    10.3596     96.682  68.372885     13.458     0.4243      3.792   11.19051   11.17940 9.3137e-01    19.0804     3.2000    44.9325   999.7499  0.000e+00
      9.514    10.3124    10.3148     96.977  68.494860     13.533     0.4246      3.791   11.20225   11.19114 8.7992e-01    18.7581     3.2399    44.4868   999.7544  0.000e+00
      9.560    10.2656    10.2681     97.711  68.921754     13.598     0.4301      3.835   11.21450   11.20341 8.1602e-01    18.5419     3.2554    44.3150   999.7592  0.000e+00
      9.635    10.2254    10.2278     98.299  69.257177     13.704     0.4245      3.782   11.22508   11.21399 7.4404e-01    18.4423     3.2530    44.3417   999.7634  0.000e+00
      9.704    10.1889    10.1913     99.441  69.989019     13.803     0.4245      3.779   11.23467   11.22358 7.1874e-01    17.7342     3.3154    43.6547   999.7675  0.000e+00
      9.755    10.1512    10.1536     99.764  70.141496     13.875     0.4195      3.730   11.24463   11.23354 6.9271e-01    17.2869     3.3507    43.2712   999.7712  0.000e+00
      9.800    10.1199    10.1223     99.766  70.080516     13.939     0.4244      3.771   11.25291   11.24182 6.3219e-01    16.9372     3.3362    43.4281   999.7743  0.000e+00
      9.856    10.1017    10.1041     99.818  70.080520     14.019     0.4184      3.717   11.25771   11.24662 6.0498e-01    16.6891     3.3269    43.5303   999.7762  0.000e+00
      9.914    10.0917    10.0941     99.847  70.080523     14.101     0.4069      3.613   11.26037   11.24928 5.8601e-01    16.6192     3.3805    42.9499   999.7774  0.000e+00
      9.972    10.0822    10.0847     99.873  70.080526     14.184     0.3980      3.534   11.26287   11.25178 5.3359e-01    16.1168     3.4004    42.7367   999.7785  0.000e+00
     10.043    10.0719    10.0743     99.990  70.141516     14.284     0.3880      3.444   11.26560   11.25452 4.7812e-01    15.6695     3.4278    42.4450   999.7798  0.000e+00
     10.123    10.0641    10.0665    100.143  70.233000     14.398     0.3765      3.342   11.26768   11.25660 4.4564e-01    14.9423     3.4464    42.2481   999.7809  0.000e+00
     10.192    10.0584    10.0608    100.159  70.233002     14.497     0.3723      3.304   11.26917   11.25809 4.1328e-01    14.2830     3.4448    42.2659   999.7817  0.000e+00
     10.258    10.0540    10.0565    100.171  70.233003     14.591     0.3676      3.261   11.27034   11.25926 3.8911e-01    13.8039     3.4424    42.2910   999.7824  0.000e+00
     10.327    10.0509    10.0533    100.180  70.233004     14.689     0.3532      3.134   11.27116   11.26008 3.7092e-01    13.1213     3.4641    42.0615   999.7830  0.000e+00
     10.391    10.0477    10.0501    100.189  70.233005     14.780     0.3566      3.163   11.27202   11.26094 3.3843e-01    12.3688     3.4678    42.0230   999.7836  0.000e+00
     10.450    10.0411    10.0435    100.078  70.141526     14.864     0.3564      3.161   11.27378   11.26270 3.2835e-01    11.7137     3.4687    42.0141   999.7845  0.000e+00
     10.521    10.0294    10.0318    100.242  70.233010     14.964     0.3505      3.108   11.27687   11.26579 3.0388e-01    11.1053     3.4751    41.9460   999.7859  0.000e+00
     10.580    10.0149    10.0173    100.414  70.324496     15.048     0.3391      3.006   11.28073   11.26964 2.9368e-01    10.3718     3.4914    41.7758   999.7875  0.000e+00
     10.632    10.0044    10.0068    100.313  70.233017     15.122     0.3326      2.947   11.28353   11.27245 2.8415e-01     9.5747     3.4658    42.0438   999.7886  0.000e+00
     10.666     9.9986    10.0010    100.330  70.233018     15.170     0.3297      2.922   11.28507   11.27399 2.7714e-01     8.8900     3.4937    41.7521   999.7893  0.000e+00
     10.715     9.9923     9.9947    100.566  70.385491     15.241     0.3251      2.880   11.28674   11.27566 2.6159e-01     8.5127     3.5169    41.5107   999.7902  0.000e+00
     10.772     9.9888     9.9912    100.489  70.324503     15.322     0.3155      2.796   11.28766   11.27658 2.5091e-01     8.2837     3.4979    41.7077   999.7907  0.000e+00
     10.838     9.9860     9.9884    100.497  70.324505     15.416     0.3009      2.666   11.28841   11.27733 2.3813e-01     7.6456     3.5156    41.5241   999.7913  0.000e+00
     10.899     9.9695     9.9719    100.762  70.476980     15.502     0.2999      2.656   11.29279   11.28171 2.2930e-01     7.1517     3.5439    41.2309   999.7931  0.000e+00
     10.967     9.9443     9.9467    100.704  70.385503     15.599     0.2905      2.571   11.29951   11.28843 2.2191e-01     6.6705     3.5755    40.9066   999.7956  0.000e+00
     11.038     9.9206     9.9230    100.903  70.476992     15.700     0.2955      2.613   11.30583   11.29475 2.0631e-01     6.3737     3.5660    41.0044   999.7981  0.000e+00
     11.098     9.9015     9.9038    100.959  70.476997     15.785     0.2912      2.575   11.31094   11.29986 2.0874e-01     6.1087     3.5784    40.8770   999.8001  0.000e+00
     11.149     9.8865     9.8888    100.871  70.385518     15.858     0.2802      2.476   11.31495   11.30387 2.0003e-01     5.8140     3.5725    40.9377   999.8016  0.000e+00
     11.206     9.8759     9.8782    100.902  70.385520     15.939     0.2796      2.470   11.31778   11.30671 2.0118e-01     5.6763     3.5830    40.8296   999.8028  0.000e+00
     11.260     9.8693     9.8716    100.921  70.385522     16.016     0.2812      2.484   11.31954   11.30847 1.8907e-01     5.5533     3.5619    41.0458   999.8036  0.000e+00
     11.326     9.8648     9.8672    101.065  70.477007     16.110     0.2725      2.407   11.32074   11.30966 1.8876e-01     5.3774     3.5277    41.3982   999.8043  0.000e+00
     11.371     9.8617     9.8641    101.074  70.477008     16.174     0.2799      2.472   11.32157   11.31049 1.8833e-01     5.1611     3.4537    42.1711   999.8048  0.000e+00
     11.412     9.8584     9.8607    101.302  70.629481     16.232     0.2663      2.352   11.32245   11.31137 1.8335e-01     5.0339     3.4209    42.5190   999.8054  0.000e+00
     11.471     9.8545     9.8568    101.095  70.477010     16.316     0.2590      2.287   11.32350   11.31242 1.7772e-01     4.9364     3.4002    42.7397   999.8059  0.000e+00
     11.539     9.8516     9.8540    101.103  70.477011     16.413     0.2601      2.297   11.32426   11.31319 1.7895e-01     4.9173     3.3627    43.1424   999.8065  0.000e+00
     11.600     9.8506     9.8530    101.325  70.629484     16.499     0.2569      2.268   11.32452   11.31345 1.7074e-01     4.9301     3.3427    43.3586   999.8069  0.000e+00
     11.665     9.8493     9.8517    101.679  70.873443     16.591     0.2538      2.241   11.32485   11.31378 1.7606e-01     4.8241     3.2715    44.1374   999.8075  0.000e+00
     11.743     9.8468     9.8491    101.686  70.873444     16.702     0.2527      2.231   11.32554   11.31446 1.7267e-01     4.5909     3.1791    45.1679   999.8081  0.000e+00
     11.800     9.8443     9.8467    101.693  70.873445     16.783     0.2454      2.167   11.32619   11.31512 1.7203e-01     4.4722     3.1247    45.7868   999.8086  0.000e+00
     11.863     9.8418     9.8441    101.832  70.964931     16.874     0.2443      2.157   11.32688   11.31580 1.6992e-01     4.3746     3.0321    46.8588   999.8091  0.000e+00
     11.954     9.8401     9.8425    101.968  71.056418     17.002     0.2369      2.091   11.32731   11.31623 1.6603e-01     4.2644     2.9216    48.1721   999.8097  0.000e+00
     12.043     9.8386     9.8409    101.710  70.873448     17.129     0.2397      2.116   11.32774   11.31666 1.6486e-01     4.1626     2.8792    48.6844   999.8102  0.000e+00
     12.107     9.8367     9.8391    101.978  71.056419     17.221     0.2365      2.088   11.32823   11.31715 1.6756e-01     4.0736     2.8442    49.1123   999.8108  0.000e+00
     12.168     9.8357     9.8381    101.850  70.964935     17.307     0.2339      2.065   11.32850   11.31742 1.6186e-01     3.9613     2.8257    49.3403   999.8111  0.000e+00
     12.255     9.8353     9.8377    101.851  70.964935     17.430     0.2324      2.051   11.32861   11.31753 1.6024e-01     3.8107     2.7848    49.8482   999.8115  0.000e+00
     12.333     9.8342     9.8366    101.854  70.964936     17.541     0.2316      2.045   11.32890   11.31783 1.6075e-01     3.6751     2.7415    50.3901   999.8120  0.000e+00
     12.382     9.8326     9.8349    102.078  71.117413     17.611     0.2305      2.035   11.32933   11.31826 1.5812e-01     3.5542     2.7160    50.7128   999.8124  0.000e+00
     12.434     9.8303     9.8327    102.128  71.147909     17.685     0.2281      2.013   11.32992   11.31885 1.5607e-01     3.4822     2.7069    50.8283   999.8129  0.000e+00
     12.493     9.8280     9.8303    102.091  71.117415     17.769     0.2246      1.982   11.33056   11.31949 1.5447e-01     3.3783     2.6956    50.9720   999.8134  0.000e+00
     12.541     9.8266     9.8290    102.095  71.117415     17.838     0.2263      1.997   11.33092   11.31985 1.5650e-01     3.3444     2.6970    50.9542   999.8137  0.000e+00
     12.594     9.8257     9.8280    102.010  71.056425     17.913     0.2160      1.906   11.33118   11.32010 1.5226e-01     3.3232     2.6876    51.0741   999.8140  0.000e+00
     12.689     9.8243     9.8267    102.014  71.056426     18.048     0.2110      1.862   11.33153   11.32046 1.5257e-01     3.2765     2.6600    51.4280   999.8146  0.000e+00
     12.768     9.8227     9.8251    102.019  71.056427     18.160     0.2112      1.864   11.33197   11.32090 1.5355e-01     3.2193     2.6760    51.2222   999.8151  0.000e+00
     12.830     9.8219     9.8243    101.890  70.964942     18.249     0.2048      1.807   11.33219   11.32112 1.5324e-01     3.1069     2.6608    51.4176   999.8154  0.000e+00
     12.899     9.8207     9.8230    101.762  70.873458     18.346     0.2048      1.807   11.33253   11.32145 1.5239e-01     3.1493     2.6318    51.7907   999.8158  0.000e+00
     12.946     9.8194     9.8218    101.766  70.873458     18.413     0.2006      1.770   11.33287   11.32179 1.5233e-01     3.1218     2.5963    52.2527   999.8161  0.000e+00
     12.986     9.8191     9.8215    101.898  70.964944     18.471     0.1991      1.757   11.33294   11.32187 1.5359e-01     3.0836     2.5836    52.4185   999.8164  0.000e+00
     13.035     9.8185     9.8209    102.031  71.056430     18.540     0.1935      1.708   11.33309   11.32202 1.5299e-01     3.0688     2.5556    52.7872   999.8167  0.000e+00
     13.105     9.8179     9.8203    102.033  71.056430     18.640     0.2043      1.802   11.33325   11.32218 1.5201e-01     3.0052     2.5503    52.8568   999.8171  0.000e+00
     13.162     9.8177     9.8200    101.903  70.964945     18.721     0.1959      1.728   11.33333   11.32226 1.5056e-01     2.9077     2.5441    52.9397   999.8173  0.000e+00
     13.216     9.8177     9.8200    101.903  70.964946     18.798     0.1855      1.637   11.33333   11.32226 1.4802e-01     2.8292     2.5462    52.9116   999.8176  0.000e+00
     13.270     9.8172     9.8195    102.123  71.117422     18.874     0.1852      1.634   11.33345   11.32238 1.5156e-01     2.7847     2.5555    52.7887   999.8179  0.000e+00
     13.327     9.8163     9.8186    101.775  70.873462     18.956     0.1949      1.720   11.33371   11.32264 1.5142e-01     2.8398     2.5512    52.8449   999.8182  0.000e+00
     13.364     9.8156     9.8180    101.909  70.964947     19.009     0.1888      1.665   11.33388   11.32280 1.5184e-01     2.8844     2.5348    53.0626   999.8184  0.000e+00
     13.407     9.8152     9.8175    101.910  70.964948     19.070     0.1904      1.680   11.33400   11.32293 1.5152e-01     2.8568     2.5176    53.2906   999.8187  0.000e+00
     13.481     9.8149     9.8172    101.911  70.964948     19.174     0.1860      1.641   11.33408   11.32301 1.5004e-01     2.8674     2.5131    53.3513   999.8190  0.000e+00
     13.541     9.8146     9.8169    102.043  71.056434     19.260     0.1939      1.711   11.33416   11.32308 1.5090e-01     2.8950     2.5220    53.2329   999.8194  0.000e+00
     13.576     9.8140     9.8163    102.045  71.056434     19.310     0.1926      1.699   11.33431   11.32324 1.4949e-01     2.9246     2.5155    53.3187   999.8196  0.000e+00
     13.630     9.8132     9.8156    102.047  71.056435     19.387     0.1858      1.639   11.33451   11.32344 1.5028e-01     2.9713     2.5132    53.3498   999.8199  0.000e+00
     13.717     9.8125     9.8148    101.918  70.964950     19.510     0.1775      1.566   11.33472   11.32365 1.4610e-01     2.9437     2.5119    53.3676   999.8204  0.000e+00
     13.791     9.8119     9.8142    102.051  71.056436     19.615     0.1807      1.594   11.33487   11.32380 1.4494e-01     2.9607     2.5005    53.5201   999.8208  0.000e+00
     13.840     9.8117     9.8140    102.051  71.056437     19.685     0.1718      1.516   11.33494   11.32386 1.4718e-01     2.9628     2.4885    53.6800   999.8211  0.000e+00
     13.891     9.8110     9.8134    101.791  70.873467     19.757     0.1831      1.615   11.33512   11.32404 1.5004e-01     2.9501     2.4872    53.6978   999.8213  0.000e+00
     13.970     9.8102     9.8126    101.793  70.873467     19.870     0.1766      1.558   11.33533   11.32426 1.4884e-01     2.9140     2.4826    53.7600   999.8217  0.000e+00
     14.037     9.8092     9.8116    102.146  71.117429     19.965     0.1706      1.505   11.33559   11.32451 1.5014e-01     2.9289     2.4646    54.0013   999.8222  0.000e+00
     14.086     9.8072     9.8096    102.152  71.117430     20.035     0.1725      1.522   11.33612   11.32504 1.4725e-01     2.9246     2.4730    53.8888   999.8226  0.000e+00
     14.137     9.8047     9.8070    102.072  71.056440     20.107     0.1682      1.483   11.33681   11.32573 1.5087e-01     2.8928     2.4491    54.2116   999.8231  0.000e+00
     14.205     9.8039     9.8062    102.162  71.117432     20.204     0.1620      1.429   11.33702   11.32595 1.4850e-01     2.9098     2.4500    54.1997   999.8235  0.000e+00
     14.264     9.8036     9.8059    102.163  71.117432     20.289     0.1723      1.520   11.33710   11.32603 1.4714e-01     2.8695     2.4324    54.4381   999.8238  0.000e+00
     14.319     9.8030     9.8053    102.165  71.117433     20.367     0.1594      1.406   11.33726   11.32618 1.4833e-01     2.9416     2.4420    54.3078   999.8241  0.000e+00
     14.380     9.8023     9.8046    101.948  70.964957     20.453     0.1486      1.310   11.33745   11.32638 1.4976e-01     2.8971     2.4431    54.2930   999.8244  0.000e+00
     14.454     9.8019     9.8043    102.080  71.056443     20.559     0.1593      1.405   11.33754   11.32647 1.4769e-01     2.8123     2.4464    54.2486   999.8248  0.000e+00
     14.512     9.8016     9.8040    102.168  71.117434     20.640     0.1619      1.428   11.33762   11.32654 1.4421e-01     2.7423     2.4370    54.3759   999.8251  0.000e+00
     14.552     9.8012     9.8035    102.082  71.056444     20.698     0.1618      1.427   11.33774   11.32667 1.4994e-01     2.6936     2.4053    54.8083   999.8253  0.000e+00
     14.604     9.8004     9.8027    102.085  71.056444     20.771     0.1646      1.452   11.33796   11.32689 1.4721e-01     2.7317     2.4179    54.6365   999.8256  0.000e+00
     14.665     9.7998     9.8021    102.305  71.208922     20.859     0.1663      1.467   11.33811   11.32704 1.4600e-01     2.7656     2.4193    54.6173   999.8260  0.000e+00
     14.710     9.7995     9.8018    102.438  71.300409     20.923     0.1519      1.340   11.33818   11.32711 1.4641e-01     2.7550     2.3981    54.9075   999.8263  0.000e+00
     14.759     9.7987     9.8010    102.177  71.117436     20.992     0.1607      1.417   11.33841   11.32734 1.4651e-01     2.7868     2.4038    54.8290   999.8265  0.000e+00
     14.829     9.7976     9.7999    102.443  71.300410     21.092     0.1530      1.350   11.33870   11.32763 1.4514e-01     2.8441     2.3991    54.8941   999.8270  0.000e+00
     14.894     9.7968     9.7992    102.577  71.391898     21.184     0.1520      1.341   11.33890   11.32782 1.4524e-01     2.7890     2.3753    55.2214   999.8275  0.000e+00
     14.952     9.7959     9.7982    102.667  71.452890     21.267     0.1525      1.345   11.33914   11.32807 1.4627e-01     2.7211     2.3800    55.1562   999.8278  0.000e+00
     15.015     9.7946     9.7970    102.934  71.635867     21.356     0.1547      1.364   11.33948   11.32841 1.5014e-01     2.6618     2.3831    55.1133   999.8283  0.000e+00
     15.088     9.7933     9.7956    103.026  71.696860     21.461     0.1484      1.309   11.33984   11.32876 1.5056e-01     2.7169     2.3539    55.5175   999.8288  0.000e+00
     15.136     9.7929     9.7952    102.589  71.391900     21.528     0.1512      1.333   11.33996   11.32888 1.4867e-01     2.6681     2.3461    55.6256   999.8289  0.000e+00
     15.154     9.7932     9.7955    102.544  71.361405     21.554     0.1476      1.302   11.33988   11.32881 1.4444e-01     2.6384     2.3238    55.9365   999.8290  0.000e+00
     15.199     9.7933     9.7956    102.807  71.544380     21.619     0.1452      1.280   11.33984   11.32877 1.4617e-01     2.6490     2.3272    55.8891   999.8293  0.000e+00
     15.273     9.7930     9.7953    103.027  71.696861     21.723     0.1474      1.300   11.33991   11.32884 1.4460e-01     2.6088     2.3492    55.5826   999.8297  0.000e+00
     15.345     9.7922     9.7946    103.029  71.696862     21.826     0.1506      1.328   11.34012   11.32904 1.4524e-01     2.6257     2.3396    55.7159   999.8301  0.000e+00
     15.406     9.7913     9.7937    103.294  71.879841     21.912     0.1477      1.303   11.34034   11.32927 1.4714e-01     2.5918     2.3488    55.5886   999.8306  0.000e+00
     15.471     9.7905     9.7929    103.384  71.940834     22.005     0.1489      1.313   11.34056   11.32948 1.4809e-01     2.5876     2.3427    55.6729   999.8310  0.000e+00
     15.542     9.7899     9.7922    103.649  72.123815     22.106     0.1476      1.302   11.34072   11.32965 1.4976e-01     2.5939     2.3208    55.9780   999.8315  0.000e+00
     15.588     9.7897     9.7920    103.869  72.276301     22.172     0.1341      1.182   11.34078   11.32970 1.4704e-01     2.5091     2.3079    56.1601   999.8318  0.000e+00
     15.618     9.7892     9.7915    103.870  72.276301     22.214     0.1431      1.262   11.34090   11.32983 1.4517e-01     2.5134     2.3002    56.2682   999.8320  0.000e+00
     15.667     9.7895     9.7919    104.220  72.520280     22.284     0.1283      1.132   11.34079   11.32972 1.4260e-01     2.5176     2.3039    56.2163   999.8323  0.000e+00
     15.728     9.7900     9.7923    106.717  74.258711     22.370     0.1272      1.121   11.34060   11.32953 1.4614e-01     2.5070     2.3042    56.2119   999.8334  0.000e+00
     15.757     9.7897     9.7921    110.488  76.881892     22.412     0.1356      1.196   11.34054   11.32947 1.4714e-01     2.4837     2.2880    56.4399   999.8350  0.000e+00
     15.782     9.7901     9.7924    117.677  81.885185     22.447     0.1311      1.156   11.34021   11.32914 1.4799e-01     2.4964     2.2872    56.4503   999.8376  0.000e+00
     15.831     9.7907     9.7930    189.850 132.108915     22.517     0.1263      1.114   11.33763   11.32657 1.4641e-01     2.5261     2.2943    56.3511   999.8642  0.000e+00
     15.874     9.7925     9.7948    252.807 175.927359     22.578     0.1234      1.089   11.33500   11.32395 1.4500e-01     2.5452     2.3021    56.2415   999.8876  0.000e+00
     15.882     9.7969     9.7992    268.855 187.119136     22.589     0.1349      1.190   11.33326   11.32222 1.4884e-01     2.5939     2.3030    56.2282   999.8933  0.000e+00
     15.916     9.8007     9.8030    272.748 189.849023     22.637     0.1314      1.160   11.33212   11.32107 1.4728e-01     2.6066     2.3060    56.1867   999.8946  0.000e+00
     15.966     9.8043     9.8066    273.160 190.155774     22.709     0.1337      1.180   11.33114   11.32009 1.4819e-01     2.6321     2.2954    56.3348   999.8946  0.000e+00
     16.003     9.8067     9.8090    273.318 190.278475     22.761     0.1313      1.159   11.33049   11.31945 1.4674e-01     2.5812     2.3008    56.2593   999.8947  0.000e+00
     16.045     9.8080     9.8104    273.175 190.186448     22.822     0.1321      1.166   11.33012   11.31908 1.4560e-01     2.5558     2.3084    56.1527   999.8947  0.000e+00
     16.091     9.8097     9.8120    273.779 190.615909     22.887     0.1348      1.189   11.32966   11.31862 1.4806e-01     3.2511     2.3121    56.1008   999.8950  0.000e+00
     16.102     9.8118     9.8141    273.630 190.523880     22.903     0.1367      1.207   11.32911   11.31806 1.4698e-01     5.5215     2.3994    54.8897   999.8948  0.000e+00
     16.108     9.8140     9.8163    273.613 190.523879     22.911     0.1433      1.265   11.32852   11.31747 1.4560e-01     6.4903     3.1069    45.9911   999.8946  0.000e+00
     16.112     9.8168     9.8192    274.075 190.861316     22.917     0.1327      1.172   11.32774   11.31669 1.4752e-01     7.9551     3.8845    37.8654   999.8946  0.000e+00
