* Sea-Bird SBE19plus Data File:
* FileName = C:\Users\instrument\Desktop\Iola Rosa. CTD Cast. July.23\Jsanuary 2024\Iola Rosa Jan122.24.hex
* Software Version 1.59
* Temperature SN =  4268
* Conductivity SN =  4268
* System UpLoad Time = Feb 01 2024 08:52:26
* ds
* SeacatPlus V 1.6  SERIAL NO. 4268    01 Feb 2024  08:53:08
* vbatt = 12.9, vlith =  8.0, ioper =  61.6 ma, ipump = 124.7 ma,
* iext01 =  38.8 ma
* iext23 =  51.3 ma
*
* status = not logging
* number of scans to average = 1
* samples = 191696, free = 249378, casts = 131
* mode = profile, minimum cond freq = 2567, pump delay = 60 sec
* autorun = no, ignore magnetic switch = no
* battery type = alkaline, battery cutoff =  7.3 volts
* pressure sensor = strain gauge, range = 508.0
* SBE 38 = no, Gas Tension Device = no
* Ext Volt 0 = yes, Ext Volt 1 = yes, Ext Volt 2 = yes, Ext Volt 3 = yes
* echo commands = yes
* output format = raw HEX

* S>
*
* SeacatPlus V 1.6  SERIAL NO. 4268    01 Feb 2024  08:54:03
* temperature:  06-dec-05
*     TA0 = 1.161749e-03
*     TA1 = 2.891779e-04
*     TA2 = -3.393560e-06
*     TA3 = 2.889319e-07
*     TOFFSET = 0.000000e+00
* conductivity:  06-dec-05
*     G = -9.977815e-01
*     H = 1.528486e-01
*     I = -4.694078e-04
*     J = 6.039801e-05
*     CF0 = 2.561972e+03
*     CPCOR = -9.570000e-08
*     CTCOR = 3.250000e-06
*     CSLOPE = 1.000000e+00
* pressure S/N = 1980, range = 508 psia:  22-nov-05
*     PA0 = 1.166340e-01
*     PA1 = 1.562008e-03
*     PA2 = 7.521856e-12
*     PTCA0 = 5.244793e+05
*     PTCA1 = 6.705477e+00
*     PTCA2 = -1.525623e-01
*     PTCB0 = 2.485325e+01
*     PTCB1 = -3.500000e-04
*     PTCB2 = 0.000000e+00
*     PTEMPA0 = -7.187026e+01
*     PTEMPA1 = 4.819360e+01
*     PTEMPA2 = -2.287845e-02
*     POFFSET = 0.000000e+00
* volt 0: offset = -4.716333e-02, slope = 1.249825e+00
* volt 1: offset = -4.705000e-02, slope = 1.250722e+00
* volt 2: offset = -4.720000e-02, slope = 1.250906e+00
* volt 3: offset = 0.000000e+00, slope = 1.000000e+00
*     EXTFREQSF = 1.000004e+00
* dh
* cast 122 25 Jan 2024 09:29:34 samples 173965 to 175119, avg = 1, stop = mag switch

* S>
# nquan = 16
# nvalues = 1022                                  
# units = specified
# name 0 = depFM: Depth [fresh water, m]
# name 1 = tv290C: Temperature [ITS-90, deg C]
# name 2 = tv268C: Temperature [IPTS-68, deg C]
# name 3 = specc: Specific Conductance [uS/cm]
# name 4 = c0uS/cm: Conductivity [uS/cm]
# name 5 = prdE: Pressure, Strain Gauge [psi]
# name 6 = sbeox0Mg/L: Oxygen, SBE 43 [mg/l]
# name 7 = sbeox0PS: Oxygen, SBE 43 [% saturation]
# name 8 = oxsolMg/L: Oxygen Saturation, Garcia & Gordon [mg/l]
# name 9 = oxsatMg/L: Oxygen Saturation, Weiss [mg/l]
# name 10 = par: PAR/Irradiance, Biospherical/Licor
# name 11 = flCM: Fluorescence, Chelsea Mini Chl Con [ug/l]
# name 12 = bat: Beam Attenuation, Chelsea/Seatech [1/m]
# name 13 = xmiss: Beam Transmission, Chelsea/Seatech [%]
# name 14 = density00: Density [density, kg/m^3]
# name 15 = flag:  0.000e+00
# span 0 =     -0.767,     15.942                 
# span 1 =     9.7537,    23.6095                 
# span 2 =     9.7560,    23.6151                 
# span 3 =     -2.321,    241.885                 
# span 4 =  -2.120353, 168.265322                 
# span 5 =     -1.091,     22.675                 
# span 6 =    -1.2884,     8.7112                 
# span 7 =    -12.202,    102.369                 
# span 8 =    8.47743,   11.35012                 
# span 9 =    8.45867,   11.33905                 
# span 10 = 1.1259e-01, 8.6812e+01                
# span 11 =    -0.3612,    41.0065                
# span 12 =     1.2987,     9.9321                
# span 13 =     8.3491,    72.2767                
# span 14 =   997.4084,   999.8853                
# span 15 = 0.0000e+00, 0.0000e+00                
# interval = seconds: 0.25
# start_time = Jan 25 2024 09:29:34 [Instrument's time stamp, header]
# bad_flag = -9.990e-29
# <Sensors count="7" >
#   <sensor Channel="1" >
#     <!-- Count, Temperature -->
#     <TemperatureSensor SensorID="58" >
#       <SerialNumber>4268</SerialNumber>
#       <CalibrationDate>06-Dec-05</CalibrationDate>
#       <A0>1.16174900e-003</A0>
#       <A1>2.89177900e-004</A1>
#       <A2>-3.39356000e-006</A2>
#       <A3>2.88931900e-007</A3>
#       <Slope>1.00000000</Slope>
#       <Offset>0.0000</Offset>
#     </TemperatureSensor>
#   </sensor>
#   <sensor Channel="2" >
#     <!-- Frequency 0, Conductivity -->
#     <ConductivitySensor SensorID="3" >
#       <SerialNumber>4268</SerialNumber>
#       <CalibrationDate>06-Dec-05</CalibrationDate>
#       <UseG_J>1</UseG_J>
#       <!-- Cell const and series R are applicable only for wide range sensors. -->
#       <SeriesR>0.0000</SeriesR>
#       <CellConst>2000.0000</CellConst>
#       <ConductivityType>0</ConductivityType>
#       <Coefficients equation="0" >
#         <A>0.00000000e+000</A>
#         <B>0.00000000e+000</B>
#         <C>0.00000000e+000</C>
#         <D>0.00000000e+000</D>
#         <M>0.0</M>
#         <CPcor>-9.57000000e-008</CPcor>
#       </Coefficients>
#       <Coefficients equation="1" >
#         <G>-9.97781500e-001</G>
#         <H>1.52848600e-001</H>
#         <I>-4.69407800e-004</I>
#         <J>6.03980100e-005</J>
#         <CPcor>-9.57000000e-008</CPcor>
#         <CTcor>3.2500e-006</CTcor>
#         <!-- WBOTC not applicable unless ConductivityType = 1. -->
#         <WBOTC>0.00000000e+000</WBOTC>
#       </Coefficients>
#       <Slope>1.00000000</Slope>
#       <Offset>0.00000</Offset>
#     </ConductivitySensor>
#   </sensor>
#   <sensor Channel="3" >
#     <!-- Count, Pressure, Strain Gauge -->
#     <PressureSensor SensorID="46" >
#       <SerialNumber>4268</SerialNumber>
#       <CalibrationDate>22-Nov-05</CalibrationDate>
#       <PA0>1.16634000e-001</PA0>
#       <PA1>1.56200800e-003</PA1>
#       <PA2>7.52185600e-012</PA2>
#       <PTEMPA0>-7.18702600e+001</PTEMPA0>
#       <PTEMPA1>4.81936000e+001</PTEMPA1>
#       <PTEMPA2>-2.28784500e-002</PTEMPA2>
#       <PTCA0>5.24479300e+005</PTCA0>
#       <PTCA1>6.70547700e+000</PTCA1>
#       <PTCA2>-1.52562300e-001</PTCA2>
#       <PTCB0>2.48532500e+001</PTCB0>
#       <PTCB1>-3.50000000e-004</PTCB1>
#       <PTCB2>0.00000000e+000</PTCB2>
#       <Offset>0.000000</Offset>
#     </PressureSensor>
#   </sensor>
#   <sensor Channel="4" >
#     <!-- A/D voltage 0, Oxygen, SBE 43 -->
#     <OxygenSensor SensorID="38" >
#       <SerialNumber>0268</SerialNumber>
#       <CalibrationDate>29-Feb-20</CalibrationDate>
#       <Use2007Equation>1</Use2007Equation>
#       <CalibrationCoefficients equation="0" >
#         <!-- Coefficients for Owens-Millard equation. -->
#         <Boc>0.0000</Boc>
#         <Soc>3.1260e-001</Soc>
#         <offset>-0.4337</offset>
#         <Pcor>1.35e-004</Pcor>
#         <Tcor>0.0023</Tcor>
#         <Tau>0.0</Tau>
#       </CalibrationCoefficients>
#       <CalibrationCoefficients equation="1" >
#         <!-- Coefficients for Sea-Bird equation - SBE calibration in 2007 and later. -->
#         <Soc>5.4910e-001</Soc>
#         <offset>-0.4386</offset>
#         <A>-3.6337e-003</A>
#         <B> 1.0518e-004</B>
#         <C>-1.0368e-006</C>
#         <D0> 2.5826e+000</D0>
#         <D1> 1.92634e-004</D1>
#         <D2>-4.64803e-002</D2>
#         <E> 3.6000e-002</E>
#         <Tau20> 1.2800</Tau20>
#         <H1>-3.3000e-002</H1>
#         <H2> 5.0000e+003</H2>
#         <H3> 1.4500e+003</H3>
#       </CalibrationCoefficients>
#     </OxygenSensor>
#   </sensor>
#   <sensor Channel="5" >
#     <!-- A/D voltage 1, Transmissometer, Chelsea/Seatech -->
#     <TransChelseaSeatechWetlabCStarSensor SensorID="59" >
#       <SerialNumber>CST-612PR</SerialNumber>
#       <CalibrationDate>6/27/02</CalibrationDate>
#       <M>19.4066</M>
#       <B>-1.1062</B>
#       <PathLength>0.250</PathLength>
#     </TransChelseaSeatechWetlabCStarSensor>
#   </sensor>
#   <sensor Channel="6" >
#     <!-- A/D voltage 2, Fluorometer, Chelsea Minitracka -->
#     <FluoroChelseaMinitrackaSensor SensorID="6" >
#       <SerialNumber>175011</SerialNumber>
#       <CalibrationDate>26-Mar-97</CalibrationDate>
#       <Vacetone>0.013</Vacetone>
#       <Vacetone100>3.612</Vacetone100>
#       <Offset>0.000</Offset>
#     </FluoroChelseaMinitrackaSensor>
#   </sensor>
#   <sensor Channel="7" >
#     <!-- A/D voltage 3, PAR/Irradiance, Biospherical/Licor -->
#     <PAR_BiosphericalLicorChelseaSensor SensorID="42" >
#       <SerialNumber>6404</SerialNumber>
#       <CalibrationDate>29-Nov-05</CalibrationDate>
#       <M>-0.76668700</M>
#       <B>-3.43363000</B>
#       <CalibrationConstant>3.42000000</CalibrationConstant>
#       <Multiplier>1.00000000</Multiplier>
#       <Offset>0.00000000</Offset>
#     </PAR_BiosphericalLicorChelseaSensor>
#   </sensor>
# </Sensors>
# datcnv_date = Jun 04 2024 15:04:07, 7.26.7.129 [datcnv_vars = 15]
# datcnv_in = C:\Users\ir64\OneDrive - The University of Waikato\Documents\Sampling\CTD casts\2024.01 CTD casts\2024.01 HEX files\Iola Rosa Jan122.24.hex C:\Users\ir64\OneDrive - The University of Waikato\Documents\Sampling\CTD Documents\New 4268 & 6165 con files\20200723_SBE19_4268.xmlcon
# datcnv_skipover = 0
# datcnv_ox_hysteresis_correction = yes
# datcnv_ox_tau_correction = yes
# file_type = ascii
*END*
     -0.764    20.6849    20.6899     -2.254  -2.059587     -1.086     8.5202     94.984    8.97012    8.95336 1.3918e+01     0.2345     1.3788    70.8435   998.0581  0.000e+00
     -0.762    20.6855    20.6904     -2.221  -2.029204     -1.084     8.5230     95.016    8.97002    8.95326 1.4809e+01     0.1772     1.4040    70.3978   998.0580  0.000e+00
     -0.765    20.6850    20.6899     -2.121  -1.938055     -1.088     8.5255     95.044    8.97011    8.95335 2.4517e+01    -0.1238     1.3761    70.8908   998.0581  0.000e+00
     -0.766    20.6828    20.6878     -2.054  -1.877288     -1.089     8.5257     95.041    8.97049    8.95373 3.4915e+01     1.0316     1.3350    71.6238   998.0585  0.000e+00
     -0.764    20.6807    20.6856     -2.221  -2.029204     -1.086     8.5263     95.044    8.97086    8.95411 4.0606e+01     0.7072     1.3080    72.1079   998.0590  0.000e+00
     -0.766    20.6809    20.6859     -2.121  -1.938055     -1.089     8.5257     95.039    8.97082    8.95406 6.2499e+01     0.5249     1.2987    72.2767   998.0589  0.000e+00
     -0.766    20.6813    20.6862     -2.121  -1.938055     -1.089     8.5278     95.062    8.97076    8.95400 7.4150e+01     0.3935     1.3012    72.2308   998.0589  0.000e+00
     -0.767    20.6808    20.6858     -2.121  -1.938055     -1.091     8.5268     95.050    8.97083    8.95408 8.3955e+01     0.2854     1.3089    72.0916   998.0590  0.000e+00
     -0.765    20.6803    20.6852     -2.321  -2.120353     -1.088     8.5267     95.049    8.97093    8.95418 8.6812e+01     0.2599     1.3144    71.9939   998.0591  0.000e+00
     -0.738    20.6802    20.6852      2.934   2.680722     -1.050     8.5273     95.061    8.97039    8.95364 7.8702e+01     0.0755     1.3158    71.9687   998.0673  0.000e+00
     -0.635    20.9818    20.9868     69.332  63.766993     -0.903     8.4672     94.965    8.91611    8.89913 7.6322e+01    -0.3082     3.2879    43.9567   998.0233  0.000e+00
     -0.511    21.8536    21.8589     99.029  92.807551     -0.727     8.3226     94.946    8.76566    8.74805 8.2563e+01     3.3783     9.9321     8.3491   997.8413  0.000e+00
     -0.381    22.4986    22.5040    104.786  99.554940     -0.542     8.2163     94.902    8.65762    8.63956 7.6410e+01     4.8728     9.3514     9.6535   997.6964  0.000e+00
     -0.256    22.9338    22.9393    101.095  96.928780     -0.364     8.1470     94.885    8.58623    8.56789 4.1528e+01     5.1526     9.0816    10.3272   997.5938  0.000e+00
     -0.167    23.1990    23.2046     99.272  95.707409     -0.237     8.1103     94.933    8.54322    8.52471 4.8966e+01     5.1654     8.6964    11.3711   997.5306  0.000e+00
     -0.129    23.3472    23.3528     98.368  95.127278     -0.183     8.1189     95.299    8.51936    8.50076 4.5130e+01     5.2290     5.7118    23.9801   997.4950  0.000e+00
     -0.122    23.4212    23.4268     98.028  94.944074     -0.173     8.1618     95.937    8.50749    8.48884 4.7671e+01     5.2926     3.1504    45.4936   997.4771  0.000e+00
     -0.114    23.4418    23.4474     97.987  94.944068     -0.162     8.2203     96.662    8.50418    8.48552 4.7496e+01     5.3392     2.6151    52.0084   997.4721  0.000e+00
     -0.089    23.4341    23.4397     98.538  95.463088     -0.127     8.2840     97.397    8.50540    8.48675 4.7540e+01     5.4515     2.2153    57.4749   997.4743  0.000e+00
     -0.061    23.4228    23.4284     99.664  96.531701     -0.087     8.3408     98.044    8.50719    8.48854 5.2752e+01     5.3943     2.1493    58.4314   997.4775  0.000e+00
     -0.059    23.3997    23.4053    100.122  96.928635     -0.084     8.4004     98.702    8.51089    8.49225 4.9157e+01     5.4812     2.1266    58.7630   997.4832  0.000e+00
     -0.060    23.3167    23.3223    100.452  97.081327     -0.086     8.4517     99.149    8.52421    8.50563 5.4860e+01     5.5554     2.1157    58.9244   997.5033  0.000e+00
     -0.056    23.2060    23.2116    100.018  96.440172     -0.080     8.4983     99.487    8.54207    8.52355 4.6325e+01     5.5893     2.0907    59.2931   997.5297  0.000e+00
     -0.042    23.1366    23.1421     99.972  96.257000     -0.059     8.5194     99.604    8.55331    8.53484 5.2151e+01     5.6763     2.1044    59.0902   997.5463  0.000e+00
     -0.023    23.1119    23.1174     99.960  96.195944     -0.033     8.5267     99.643    8.55731    8.53885 4.5306e+01     5.7738     2.0849    59.3790   997.5522  0.000e+00
     -0.016    23.1165    23.1220     99.696  95.951688     -0.023     8.5271     99.655    8.55656    8.53810 4.9667e+01     5.6932     2.0737    59.5463   997.5511  0.000e+00
     -0.008    23.1614    23.1669     99.064  95.432643     -0.011     8.5042     99.472    8.54931    8.53083 4.4209e+01     5.7356     2.1124    58.9718   997.5402  0.000e+00
      0.003    23.2202    23.2258     98.532  95.035728      0.005     8.4995     99.528    8.53982    8.52129 4.6859e+01     5.7738     2.0824    59.4160   997.5260  0.000e+00
      0.017    23.2825    23.2880     98.247  94.883058      0.023     8.4871     99.499    8.52978    8.51122 4.8944e+01     5.7526     2.0924    59.2679   997.5111  0.000e+00
      0.015    23.3358    23.3414     97.949  94.699862      0.022     8.5276    100.075    8.52120    8.50261 4.5609e+01     5.7632     2.0865    59.3553   997.4982  0.000e+00
      0.014    23.3782    23.3838     97.611  94.455613      0.020     8.6631    101.746    8.51439    8.49577 4.8375e+01     5.7314     2.0784    59.4752   997.4879  0.000e+00
      0.014    23.4081    23.4137     97.456  94.364016      0.020     8.7112    102.369    8.50960    8.49096 4.5535e+01     5.6911     2.0725    59.5640   997.4806  0.000e+00
      0.015    23.4290    23.4346     97.256  94.211364      0.022     8.6012    101.116    8.50625    8.48760 4.7193e+01     5.7823     2.0561    59.8083   997.4755  0.000e+00
      0.015    23.4416    23.4473     97.325  94.302947      0.022     8.3762     98.494    8.50422    8.48556 4.6134e+01     5.7250     2.0501    59.8987   997.4725  0.000e+00
      0.017    23.4509    23.4565     97.212  94.211357      0.023     8.0949     95.203    8.50274    8.48407 4.5089e+01     5.8119     2.0566    59.8009   997.4702  0.000e+00
      0.024    23.4589    23.4645     97.196  94.211355      0.034     7.7982     91.728    8.50146    8.48279 4.5048e+01     5.8586     2.0484    59.9238   997.4683  0.000e+00
      0.043    23.4646    23.4702     97.185  94.211353      0.061     7.4936     88.154    8.50055    8.48188 4.5306e+01     5.9179     2.0617    59.7239   997.4670  0.000e+00
      0.059    23.4685    23.4741     97.177  94.211352      0.084     7.2091     84.813    8.49993    8.48125 4.3786e+01     6.0451     2.0446    59.9801   997.4662  0.000e+00
      0.065    23.4702    23.4759     97.520  94.547173      0.092     6.9899     82.238    8.49964    8.48096 4.4852e+01     6.1320     2.0563    59.8054   997.4659  0.000e+00
      0.059    23.4654    23.4711     97.876  94.883002      0.084     6.8636     80.745    8.50040    8.48172 4.4321e+01     6.0494     2.0482    59.9268   997.4671  0.000e+00
      0.045    23.4615    23.4671     97.097  94.119768      0.064     6.8037     80.033    8.50105    8.48238 4.7388e+01     5.9540     2.0596    59.7565   997.4678  0.000e+00
      0.038    23.4665    23.4721     97.086  94.119766      0.055     6.7807     79.770    8.50024    8.48157 4.6325e+01     5.8586     2.0647    59.6795   997.4665  0.000e+00
      0.040    23.4690    23.4746     97.019  94.058708      0.056     6.7684     79.630    8.49985    8.48117 4.6687e+01     5.7929     2.0751    59.5255   997.4659  0.000e+00
      0.049    23.4681    23.4737     97.083  94.119766      0.070     6.7593     79.522    8.49999    8.48131 4.5535e+01     5.7759     2.1006    59.1465   997.4662  0.000e+00
      0.057    23.4600    23.4657     97.351  94.364000      0.081     6.7499     79.398    8.50127    8.48260 4.6580e+01     5.7717     2.0812    59.4337   997.4683  0.000e+00
      0.062    23.4498    23.4554     97.120  94.119771      0.088     6.7342     79.199    8.50292    8.48426 4.6495e+01     5.7907     2.0592    59.7624   997.4707  0.000e+00
      0.059    23.4482    23.4538     96.966  93.967128      0.084     6.6980     78.771    8.50318    8.48452 4.6039e+01     5.7526     2.0500    59.9001   997.4710  0.000e+00
      0.054    23.4538    23.4594     96.955  93.967127      0.077     6.6504     78.219    8.50229    8.48362 4.6612e+01     5.7505     2.0534    59.8483   997.4696  0.000e+00
      0.044    23.4577    23.4633     95.592  92.654438      0.063     6.5926     77.545    8.50169    8.48302 4.7518e+01     5.7420     2.0496    59.9061   997.4682  0.000e+00
      0.041    23.4589    23.4645     95.495  92.562858      0.058     6.5269     76.774    8.50150    8.48283 4.4924e+01     5.7907     2.0424    60.0142   997.4678  0.000e+00
      0.055    23.4590    23.4646     97.039  94.058711      0.078     6.4644     76.039    8.50145    8.48278 4.6570e+01     5.7356     2.0538    59.8424   997.4684  0.000e+00
      0.080    23.4568    23.4624     97.043  94.058712      0.114     6.4034     75.318    8.50180    8.48313 4.4108e+01     5.8522     2.0472    59.9416   997.4690  0.000e+00
      0.104    23.4492    23.4549     97.562  94.547180      0.148     6.3569     74.761    8.50300    8.48433 4.3586e+01     5.8183     2.0497    59.9046   997.4711  0.000e+00
      0.110    23.4372    23.4428     97.933  94.883011      0.156     6.3240     74.357    8.50492    8.48626 4.4873e+01     5.8988     2.0472    59.9416   997.4742  0.000e+00
      0.107    23.4342    23.4398     97.750  94.699833      0.152     6.3062     74.144    8.50541    8.48675 4.4790e+01     6.0303     2.0317    60.1741   997.4748  0.000e+00
      0.108    23.3998    23.4054     97.315  94.211374      0.153     6.3485     74.593    8.51093    8.49230 4.4842e+01     6.0451     2.0378    60.0823   997.4830  0.000e+00
      0.112    23.3779    23.3835     97.201  94.058736      0.159     6.3724     74.842    8.51445    8.49583 4.3786e+01     5.9921     2.0387    60.0689   997.4882  0.000e+00
      0.121    23.3874    23.3930     97.087  93.967147      0.172     6.4319     75.555    8.51292    8.49430 4.4616e+01     5.9879     2.0468    59.9475   997.4860  0.000e+00
      0.124    23.3984    23.4040     96.971  93.875559      0.177     6.4933     76.292    8.51117    8.49253 4.3237e+01     5.9879     2.0487    59.9194   997.4833  0.000e+00
      0.123    23.4009    23.4066     96.966  93.875558      0.175     6.5468     76.924    8.51076    8.49212 4.3526e+01     6.0133     2.0590    59.7654   997.4827  0.000e+00
      0.119    23.4014    23.4070     96.902  93.814501      0.169     6.5765     77.273    8.51069    8.49205 4.4575e+01     6.0748     2.0482    59.9268   997.4825  0.000e+00
      0.119    23.4100    23.4156     96.948  93.875555      0.169     6.5736     77.252    8.50931    8.49067 4.3756e+01     6.0324     2.0366    60.1000   997.4805  0.000e+00
      0.115    23.4259    23.4315     96.758  93.722908      0.164     6.5552     77.059    8.50676    8.48811 4.3516e+01     6.0176     2.0475    59.9372   997.4766  0.000e+00
      0.122    23.4403    23.4459     96.635  93.631319      0.173     6.5116     76.567    8.50445    8.48579 4.4565e+01     6.0578     2.0409    60.0364   997.4731  0.000e+00
      0.123    23.4499    23.4556     96.616  93.631317      0.175     6.4874     76.296    8.50291    8.48424 4.4422e+01     6.1024     2.0442    59.9860   997.4707  0.000e+00
      0.124    23.4534    23.4590     96.609  93.631316      0.177     6.4579     75.954    8.50235    8.48368 4.4199e+01     6.1172     2.0478    59.9327   997.4699  0.000e+00
      0.121    23.4485    23.4542     96.524  93.539733      0.172     6.4276     75.591    8.50314    8.48447 4.5203e+01     6.0324     2.0299    60.2007   997.4710  0.000e+00
      0.119    23.4428    23.4484     96.630  93.631319      0.169     6.3958     75.209    8.50405    8.48539 4.5213e+01     5.9942     2.0251    60.2733   997.4724  0.000e+00
      0.118    23.4453    23.4510     96.530  93.539734      0.167     6.3541     74.722    8.50365    8.48498 4.4027e+01     6.0048     2.0499    59.9016   997.4718  0.000e+00
      0.121    23.4515    23.4572     96.518  93.539732      0.172     6.3095     74.206    8.50265    8.48399 4.4996e+01     6.0515     2.0537    59.8439   997.4703  0.000e+00
      0.119    23.4573    23.4629     96.443  93.478674      0.169     6.2722     73.775    8.50173    8.48306 4.4260e+01     6.0748     2.0378    60.0823   997.4689  0.000e+00
      0.118    23.4597    23.4653     96.439  93.478674      0.167     6.2556     73.583    8.50135    8.48268 4.5431e+01     6.1766     2.0231    60.3044   997.4683  0.000e+00
      0.116    23.4590    23.4646     96.346  93.387090      0.166     6.2316     73.301    8.50147    8.48279 4.4422e+01     6.0748     2.0436    59.9949   997.4684  0.000e+00
      0.116    23.4569    23.4626     96.381  93.417619      0.166     6.2275     73.249    8.50179    8.48312 4.3736e+01     6.0727     2.0405    60.0423   997.4689  0.000e+00
      0.115    23.4556    23.4612     96.447  93.478675      0.164     6.2166     73.119    8.50200    8.48333 4.4678e+01     6.1193     2.0389    60.0660   997.4693  0.000e+00
      0.116    23.4564    23.4620     96.351  93.387091      0.166     6.1998     72.923    8.50188    8.48321 4.4422e+01     6.1214     2.0464    59.9534   997.4691  0.000e+00
      0.118    23.4578    23.4635     96.442  93.478674      0.167     6.1830     72.728    8.50165    8.48298 4.4893e+01     6.1172     2.0429    60.0067   997.4687  0.000e+00
      0.116    23.4586    23.4643     96.252  93.295508      0.166     6.1659     72.526    8.50152    8.48285 4.4169e+01     6.0939     2.0780    59.4811   997.4685  0.000e+00
      0.120    23.4595    23.4651     96.250  93.295507      0.170     6.1477     72.314    8.50138    8.48271 4.5006e+01     6.0918     2.0384    60.0734   997.4683  0.000e+00
      0.118    23.4594    23.4651     96.345  93.387090      0.167     6.1353     72.168    8.50139    8.48272 4.4118e+01     6.1193     2.0374    60.0882   997.4683  0.000e+00
      0.116    23.4599    23.4655     96.249  93.295507      0.166     6.1291     72.096    8.50133    8.48265 4.4007e+01     6.0176     2.0283    60.2259   997.4682  0.000e+00
      0.116    23.4608    23.4665     96.342  93.387090      0.166     6.1258     72.058    8.50117    8.48249 4.3228e+01     6.0727     2.0297    60.2037   997.4680  0.000e+00
      0.115    23.4621    23.4677     95.930  92.990233      0.164     6.1299     72.108    8.50098    8.48230 4.3626e+01     6.0875     2.0440    59.9890   997.4675  0.000e+00
      0.118    23.4631    23.4687     94.543  91.647084      0.167     6.1410     72.240    8.50085    8.48218 4.4118e+01     6.0748     2.0475    59.9372   997.4668  0.000e+00
      0.118    23.4636    23.4692     95.486  92.562857      0.167     6.1529     72.380    8.50075    8.48207 4.3466e+01     6.0642     2.0442    59.9860   997.4670  0.000e+00
      0.120    23.4639    23.4696     94.730  91.830235      0.170     6.1652     72.525    8.50071    8.48203 4.3506e+01     6.1320     2.0432    60.0008   997.4667  0.000e+00
      0.120    23.4623    23.4679     94.828  91.921812      0.170     6.1749     72.637    8.50097    8.48230 4.4667e+01     6.1045     2.0421    60.0186   997.4671  0.000e+00
      0.118    23.4589    23.4645     96.440  93.478674      0.167     6.1770     72.658    8.50148    8.48281 4.3987e+01     6.0748     2.0407    60.0393   997.4685  0.000e+00
      0.118    23.4546    23.4602     96.354  93.387092      0.167     6.1731     72.606    8.50217    8.48351 4.4341e+01     6.0663     2.0258    60.2629   997.4695  0.000e+00
      0.116    23.4510    23.4566     96.456  93.478676      0.166     6.1673     72.533    8.50274    8.48407 4.4443e+01     6.1278     2.0307    60.1889   997.4704  0.000e+00
      0.114    23.4496    23.4552     96.459  93.478677      0.163     6.1423     72.237    8.50297    8.48430 4.4341e+01     6.2529     2.0389    60.0660   997.4707  0.000e+00
      0.119    23.4487    23.4543     96.461  93.478677      0.169     6.1196     71.969    8.50311    8.48444 4.4524e+01     6.3249     2.0366    60.1000   997.4710  0.000e+00
      0.119    23.4474    23.4530     96.463  93.478677      0.169     6.1266     72.049    8.50332    8.48466 4.3069e+01     6.4097     2.0433    59.9993   997.4713  0.000e+00
      0.116    23.4453    23.4510     96.530  93.539734      0.166     6.1166     71.929    8.50365    8.48498 4.4647e+01     6.4097     2.0341    60.1385   997.4718  0.000e+00
      0.119    23.4415    23.4472     96.475  93.478679      0.169     6.1497     72.314    8.50426    8.48560 4.3069e+01     6.3737     2.0420    60.0201   997.4727  0.000e+00
      0.116    23.4361    23.4418     96.486  93.478681      0.166     6.2101     73.016    8.50512    8.48646 4.4280e+01     6.3928     2.0433    59.9993   997.4740  0.000e+00
      0.119    23.4296    23.4352     96.404  93.387099      0.169     6.3027     74.096    8.50617    8.48752 4.3686e+01     6.4394     2.0296    60.2052   997.4756  0.000e+00
      0.115    23.4214    23.4270     96.326  93.295519      0.164     6.3873     75.078    8.50749    8.48885 4.4007e+01     6.4161     2.0355    60.1178   997.4775  0.000e+00
      0.119    23.4138    23.4195     96.341  93.295521      0.169     6.4506     75.811    8.50870    8.49006 4.5504e+01     6.4203     2.0402    60.0467   997.4793  0.000e+00
      0.118    23.4074    23.4130     96.448  93.387106      0.167     6.4763     76.104    8.50973    8.49109 4.3646e+01     6.3419     2.0471    59.9431   997.4809  0.000e+00
      0.115    23.4016    23.4073     96.365  93.295525      0.164     6.4627     75.936    8.51066    8.49202 4.4118e+01     6.3907     2.0478    59.9327   997.4823  0.000e+00
      0.118    23.3964    23.4020     96.313  93.234471      0.167     6.4201     75.429    8.51149    8.49286 4.2326e+01     6.4076     2.0351    60.1237   997.4835  0.000e+00
      0.116    23.3913    23.3969     96.228  93.142891      0.166     6.3493     74.589    8.51232    8.49369 4.4790e+01     6.4521     2.0359    60.1119   997.4847  0.000e+00
      0.119    23.3864    23.3920     96.333  93.234474      0.169     6.2612     73.548    8.51311    8.49448 4.3099e+01     6.4055     2.0353    60.1208   997.4859  0.000e+00
      0.119    23.3819    23.3875     96.247  93.142894      0.169     6.1654     72.416    8.51384    8.49521 4.5161e+01     6.3949     2.0428    60.0082   997.4870  0.000e+00
      0.118    23.3766    23.3822     96.257  93.142895      0.167     6.0751     71.349    8.51469    8.49607 4.1624e+01     6.3504     2.0405    60.0423   997.4883  0.000e+00
      0.119    23.3706    23.3762     96.269  93.142897      0.169     5.9983     70.439    8.51564    8.49702 4.3776e+01     6.2804     2.0408    60.0378   997.4897  0.000e+00
      0.118    23.3652    23.3709     96.185  93.051317      0.167     5.9246     69.566    8.51650    8.49789 4.3138e+01     6.1978     2.0586    59.7713   997.4910  0.000e+00
      0.116    23.3609    23.3665     96.194  93.051318      0.166     5.8645     68.855    8.51720    8.49859 4.3198e+01     6.1236     2.0569    59.7965   997.4920  0.000e+00
      0.118    23.3565    23.3621     96.297  93.142901      0.167     5.8120     68.233    8.51791    8.49930 4.2413e+01     6.0748     2.0487    59.9194   997.4931  0.000e+00
      0.116    23.3514    23.3570     96.150  92.990267      0.166     5.7604     67.621    8.51873    8.50013 4.4504e+01     6.1151     2.0387    60.0689   997.4943  0.000e+00
      0.116    23.3464    23.3520     95.465  92.318682      0.166     5.7199     67.138    8.51956    8.50095 4.3277e+01     6.1193     2.0384    60.0734   997.4953  0.000e+00
      0.116    23.3416    23.3472     94.622  91.494496      0.166     5.6796     66.659    8.52034    8.50174 4.2912e+01     6.0896     2.0363    60.1045   997.4961  0.000e+00
      0.116    23.3376    23.3432     94.535  91.402922      0.166     5.6457     66.257    8.52098    8.50238 4.3218e+01     6.0600     2.0448    59.9771   997.4970  0.000e+00
      0.119    23.3340    23.3396     95.490  92.318686      0.169     5.6090     65.822    8.52154    8.50295 4.2706e+01     6.0091     2.0482    59.9268   997.4982  0.000e+00
      0.118    23.3301    23.3357     94.645  91.494499      0.167     5.5805     65.483    8.52218    8.50359 4.2990e+01     5.9497     2.0472    59.9416   997.4989  0.000e+00
      0.119    23.3260    23.3316     94.653  91.494500      0.169     5.5497     65.116    8.52285    8.50426 4.2190e+01     6.0070     2.0530    59.8542   997.4999  0.000e+00
      0.118    23.3210    23.3266     95.610  92.410269      0.167     5.5216     64.780    8.52362    8.50504 4.3866e+01     5.9518     2.0498    59.9031   997.5014  0.000e+00
      0.116    23.3166    23.3222     96.124  92.898696      0.166     5.4975     64.492    8.52432    8.50574 4.2520e+01     5.8819     2.0454    59.9683   997.5026  0.000e+00
      0.116    23.3122    23.3178     96.228  92.990278      0.166     5.4656     64.112    8.52503    8.50645 4.3099e+01     5.8819     2.0472    59.9416   997.5037  0.000e+00
      0.116    23.3078    23.3134     96.236  92.990280      0.166     5.4444     63.858    8.52574    8.50716 4.2764e+01     5.8670     2.0425    60.0127   997.5048  0.000e+00
      0.116    23.3029    23.3085     96.310  93.051336      0.166     5.4203     63.569    8.52653    8.50796 4.2823e+01     5.9434     2.0406    60.0408   997.5060  0.000e+00
      0.118    23.2980    23.3035     96.161  92.898701      0.167     5.3962     63.281    8.52733    8.50876 4.3616e+01     6.0324     2.0474    59.9386   997.5071  0.000e+00
      0.121    23.2928    23.2984     96.172  92.898703      0.172     5.3758     63.036    8.52815    8.50958 4.2745e+01     5.9518     2.0564    59.8039   997.5084  0.000e+00
      0.116    23.2884    23.2939     96.180  92.898704      0.166     5.3560     62.798    8.52887    8.51031 4.2045e+01     5.8564     2.0514    59.8779   997.5094  0.000e+00
      0.118    23.2837    23.2893     96.095  92.807125      0.167     5.4704     64.134    8.52963    8.51107 4.1691e+01     5.8289     2.0374    60.0882   997.5105  0.000e+00
      0.118    23.2791    23.2847     96.199  92.898707      0.167     5.7331     67.208    8.53036    8.51180 4.3109e+01     5.8140     2.0626    59.7106   997.5116  0.000e+00
      0.119    23.2744    23.2800     96.113  92.807128      0.169     6.0495     70.911    8.53112    8.51256 4.3307e+01     5.7759     2.0554    59.8187   997.5127  0.000e+00
      0.120    23.2699    23.2755     96.122  92.807129      0.170     6.3493     74.419    8.53186    8.51330 4.2764e+01     5.7144     2.0504    59.8942   997.5138  0.000e+00
      0.119    23.2655    23.2711     96.068  92.746077      0.169     6.5919     77.255    8.53257    8.51401 4.2530e+01     5.6953     2.0421    60.0186   997.5149  0.000e+00
      0.119    23.2612    23.2668     96.140  92.807132      0.169     6.7493     79.094    8.53324    8.51470 4.3616e+01     5.6953     2.0476    59.9357   997.5159  0.000e+00
      0.116    23.2571    23.2627     96.243  92.898714      0.166     6.8252     79.978    8.53391    8.51536 4.2579e+01     5.7653     2.0379    60.0808   997.5169  0.000e+00
      0.114    23.2524    23.2580     96.157  92.807134      0.163     6.8110     79.804    8.53466    8.51612 4.2971e+01     5.7589     2.0417    60.0245   997.5180  0.000e+00
      0.116    23.2479    23.2535     96.166  92.807136      0.166     6.7085     78.597    8.53540    8.51686 4.2365e+01     5.8543     2.0368    60.0971   997.5191  0.000e+00
      0.129    23.2484    23.2540     96.513  93.142934      0.183     6.5539     76.786    8.53531    8.51677 4.1844e+01     5.8077     2.0479    59.9312   997.5192  0.000e+00
      0.143    23.2588    23.2644     96.651  93.295568      0.203     6.3969     74.961    8.53363    8.51508 4.1093e+01     5.8586     2.0512    59.8824   997.5168  0.000e+00
      0.148    23.2618    23.2674     96.645  93.295568      0.211     6.2610     73.372    8.53315    8.51460 4.0430e+01     5.8734     2.0513    59.8794   997.5161  0.000e+00
      0.151    23.2611    23.2667     96.646  93.295568      0.214     6.1541     72.119    8.53326    8.51471 3.9387e+01     5.8501     2.0560    59.8098   997.5163  0.000e+00
      0.148    23.2537    23.2593     96.756  93.387153      0.211     6.0564     70.964    8.53445    8.51591 4.1805e+01     5.9010     2.0547    59.8291   997.5181  0.000e+00
      0.152    23.2115    23.2171     96.840  93.387166      0.216     5.9820     70.037    8.54126    8.52274 3.9741e+01     5.8713     2.0623    59.7151   997.5282  0.000e+00
      0.151    23.1754    23.1810     97.008  93.478760      0.214     5.9190     69.251    8.54709    8.52859 4.0755e+01     5.9264     2.0587    59.7698   997.5369  0.000e+00
      0.153    23.1632    23.1688     96.937  93.387181      0.217     5.8609     68.556    8.54906    8.53057 3.9351e+01     5.9942     2.0518    59.8720   997.5398  0.000e+00
      0.153    23.1540    23.1596     97.114  93.539823      0.217     5.8099     67.948    8.55055    8.53206 4.2628e+01     5.9158     2.0493    59.9105   997.5420  0.000e+00
      0.152    23.1375    23.1431     97.243  93.631412      0.216     5.7692     67.450    8.55321    8.53474 3.9841e+01     5.8776     2.0540    59.8394   997.5460  0.000e+00
      0.154    23.1205    23.1261     97.277  93.631417      0.219     5.7304     66.975    8.55596    8.53750 4.2764e+01     5.9370     2.0529    59.8557   997.5501  0.000e+00
      0.152    23.1079    23.1135     97.208  93.539837      0.216     5.6895     66.481    8.55801    8.53955 4.0952e+01     5.9179     2.0640    59.6899   997.5530  0.000e+00
      0.153    23.0991    23.1046     97.225  93.539839      0.217     5.6557     66.076    8.55944    8.54099 4.1911e+01     5.9900     2.0523    59.8646   997.5551  0.000e+00
      0.152    23.0972    23.1027     97.166  93.478784      0.216     5.6144     65.591    8.55975    8.54131 4.1901e+01     6.0070     2.0639    59.6914   997.5556  0.000e+00
      0.155    23.1004    23.1059     97.223  93.539839      0.220     5.5787     65.178    8.55923    8.54078 4.1310e+01     6.1087     2.0529    59.8557   997.5548  0.000e+00
      0.157    23.1025    23.1080     97.219  93.539838      0.223     5.5455     64.792    8.55889    8.54044 4.1481e+01     6.1554     2.0513    59.8794   997.5543  0.000e+00
      0.157    23.0980    23.1036     97.323  93.631424      0.223     5.5167     64.451    8.55961    8.54116 4.0914e+01     6.1872     2.0550    59.8246   997.5554  0.000e+00
      0.160    23.0906    23.0961     97.243  93.539842      0.228     5.4856     64.078    8.56082    8.54237 4.1691e+01     6.1363     2.0540    59.8394   997.5572  0.000e+00
      0.160    23.0833    23.0889     97.257  93.539844      0.228     5.4545     63.706    8.56199    8.54356 4.2384e+01     6.0515     2.0690    59.6159   997.5589  0.000e+00
      0.159    23.0780    23.0835     97.205  93.478790      0.227     5.4262     63.369    8.56286    8.54443 4.2413e+01     6.0091     2.0642    59.6869   997.5602  0.000e+00
      0.160    23.0747    23.0802     97.275  93.539847      0.228     5.3968     63.022    8.56340    8.54497 4.2931e+01     5.9073     2.0665    59.6529   997.5610  0.000e+00
      0.159    23.0715    23.0771     97.218  93.478792      0.227     5.3745     62.758    8.56391    8.54548 4.0858e+01     5.9222     2.0712    59.5833   997.5617  0.000e+00
      0.163    23.0676    23.0731     97.130  93.387210      0.231     5.3434     62.390    8.56455    8.54612 4.0943e+01     5.9285     2.0611    59.7343   997.5626  0.000e+00
      0.165    23.0660    23.0715     97.229  93.478794      0.234     5.3151     62.058    8.56480    8.54638 4.0550e+01     5.9603     2.0651    59.6736   997.5630  0.000e+00
      0.170    23.0667    23.0722     97.291  93.539849      0.242     5.2923     61.792    8.56469    8.54626 4.1605e+01     5.9434     2.0699    59.6025   997.5629  0.000e+00
      0.171    23.0650    23.0705     97.390  93.631434      0.244     5.2681     61.508    8.56497    8.54654 4.2065e+01     5.9264     2.0701    59.5996   997.5634  0.000e+00
      0.164    23.0588    23.0644     98.006  94.211479      0.233     5.2468     61.251    8.56595    8.54753 4.4945e+01     5.8882     2.0614    59.7299   997.5650  0.000e+00
      0.125    23.0536    23.0591     99.636  95.768520      0.178     5.2270     61.015    8.56676    8.54835 4.8765e+01     5.8988     2.0609    59.7373   997.5666  0.000e+00
      0.065    23.0014    23.0069     99.395  95.432693      0.092     5.2139     60.802    8.57526    8.55687 4.7835e+01     5.9370     2.0554    59.8187   997.5787  0.000e+00
      0.030    22.9178    22.9233     98.135  94.058876      0.042     5.2165     60.735    8.58889    8.57056 4.6826e+01     5.9094     2.0683    59.6262   997.5978  0.000e+00
      0.034    22.9186    22.9241     98.038  93.967290      0.048     5.2331     60.929    8.58877    8.57044 4.4667e+01     5.9285     2.0709    59.5877   997.5976  0.000e+00
      0.054    23.0211    23.0266     97.828  93.967259      0.077     5.2722     61.505    8.57208    8.55369 4.3366e+01     5.9412     2.0634    59.6988   997.5734  0.000e+00
      0.073    23.1324    23.1380     98.173  94.516748      0.103     5.3666     62.738    8.55401    8.53555 4.4280e+01     5.9540     2.0647    59.6795   997.5472  0.000e+00
      0.081    23.2239    23.2294     98.430  94.944137      0.116     5.5483     64.974    8.53922    8.52070 4.4647e+01     5.8988     2.0666    59.6514   997.5255  0.000e+00
      0.079    23.2903    23.2959     98.547  95.188358      0.113     5.7963     67.963    8.52851    8.50994 4.6463e+01     5.8607     2.0821    59.4204   997.5096  0.000e+00
      0.071    23.3096    23.3152     98.697  95.371536      0.102     6.0496     70.960    8.52540    8.50682 4.5182e+01     5.8352     2.0838    59.3952   997.5050  0.000e+00
      0.065    23.2804    23.2860     98.251  94.883059      0.092     6.2814     73.639    8.53011    8.51154 4.8519e+01     5.8416     2.0847    59.3819   997.5118  0.000e+00
      0.062    23.2543    23.2599     98.051  94.638828      0.088     6.4626     75.725    8.53432    8.51578 4.5327e+01     5.9179     2.0800    59.4515   997.5180  0.000e+00
      0.066    23.2557    23.2613     97.859  94.455651      0.094     6.5960     77.290    8.53410    8.51556 4.5275e+01     5.9709     2.0865    59.3553   997.5176  0.000e+00
      0.073    23.2663    23.2719     98.027  94.638825      0.103     6.6800     78.290    8.53238    8.51383 4.6741e+01     5.9879     2.0902    59.3005   997.5151  0.000e+00
      0.075    23.2689    23.2745     98.275  94.883063      0.106     6.7190     78.751    8.53196    8.51341 4.5473e+01     6.0048     2.0862    59.3597   997.5146  0.000e+00
      0.076    23.2488    23.2543     98.474  95.035720      0.108     6.7083     78.595    8.53521    8.51667 4.5808e+01     5.9434     2.0712    59.5833   997.5195  0.000e+00
      0.078    23.2354    23.2410     98.659  95.188375      0.111     6.6582     77.989    8.53736    8.51883 4.6219e+01     5.9370     2.0618    59.7225   997.5228  0.000e+00
      0.077    23.2313    23.2369     98.414  94.944134      0.109     6.5832     77.105    8.53802    8.51949 4.5306e+01     5.8776     2.0584    59.7743   997.5237  0.000e+00
      0.077    23.2229    23.2285     98.273  94.791487      0.109     6.5047     76.173    8.53938    8.52086 4.6988e+01     5.8946     2.0579    59.7817   997.5256  0.000e+00
      0.079    23.2133    23.2189     98.135  94.638841      0.113     6.4193     75.159    8.54093    8.52241 4.6923e+01     5.9073     2.0560    59.8098   997.5279  0.000e+00
      0.080    23.2067    23.2123     98.053  94.547255      0.114     6.3394     74.214    8.54200    8.52348 4.4893e+01     6.0282     2.0609    59.7373   997.5294  0.000e+00
      0.078    23.2031    23.2087     98.155  94.638844      0.111     6.2677     73.370    8.54258    8.52407 4.5203e+01     6.0303     2.0662    59.6573   997.5303  0.000e+00
      0.080    23.1981    23.2037     98.419  94.883085      0.114     6.2018     72.592    8.54338    8.52487 4.5692e+01     6.0451     2.0800    59.4515   997.5316  0.000e+00
      0.080    23.1921    23.1976     98.590  95.035737      0.114     6.1517     71.998    8.54436    8.52585 4.4975e+01     6.1193     2.0899    59.3049   997.5331  0.000e+00
      0.080    23.1878    23.1933     98.598  95.035738      0.114     6.1021     71.411    8.54505    8.52655 4.5588e+01     6.1723     2.0807    59.4411   997.5341  0.000e+00
      0.081    23.1844    23.1900     98.447  94.883089      0.116     6.0488     70.783    8.54559    8.52709 4.3716e+01     6.1850     2.0803    59.4471   997.5349  0.000e+00
      0.084    23.1818    23.1874     98.357  94.791500      0.119     5.9983     70.188    8.54602    8.52752 4.5556e+01     6.2444     2.0818    59.4249   997.5355  0.000e+00
      0.085    23.1796    23.1852     98.457  94.883090      0.120     5.9410     69.515    8.54637    8.52788 4.4535e+01     6.2317     2.0759    59.5137   997.5361  0.000e+00
      0.085    23.1770    23.1825     98.462  94.883091      0.120     5.8865     68.874    8.54680    8.52830 4.3596e+01     6.3165     2.0740    59.5418   997.5367  0.000e+00
      0.084    23.1742    23.1797     98.531  94.944152      0.119     5.8388     68.312    8.54725    8.52876 4.5120e+01     6.2741     2.0813    59.4323   997.5374  0.000e+00
      0.082    23.1712    23.1768     98.474  94.883093      0.117     5.7831     67.656    8.54774    8.52924 4.4565e+01     6.2168     2.0769    59.4974   997.5381  0.000e+00
      0.081    23.1686    23.1741     98.479  94.883094      0.116     5.7391     67.138    8.54816    8.52967 4.4321e+01     6.2359     2.0835    59.3997   997.5387  0.000e+00
      0.085    23.1659    23.1715     98.295  94.699915      0.120     5.6948     66.617    8.54859    8.53010 4.2588e+01     6.2529     2.0765    59.5048   997.5393  0.000e+00
      0.084    23.1646    23.1702     98.297  94.699916      0.119     5.6563     66.165    8.54880    8.53031 4.4524e+01     6.2698     2.0981    59.1835   997.5396  0.000e+00
      0.084    23.1636    23.1691     98.553  94.944155      0.119     5.6224     65.767    8.54897    8.53048 4.3376e+01     6.2804     2.1013    59.1361   997.5399  0.000e+00
      0.076    23.1615    23.1671     98.906  95.279990      0.108     5.5887     65.370    8.54929    8.53080 4.3846e+01     6.2847     2.0762    59.5093   997.5405  0.000e+00
      0.057    23.1602    23.1658     98.908  95.279990      0.081     5.5541     64.964    8.54950    8.53101 4.3967e+01     6.2571     2.0597    59.7550   997.5407  0.000e+00
      0.048    23.1615    23.1671     98.304  94.699916      0.069     5.5171     64.533    8.54930    8.53081 4.3526e+01     6.2656     2.0600    59.7506   997.5402  0.000e+00
      0.056    23.1649    23.1704     97.885  94.303033      0.080     5.4853     64.165    8.54877    8.53028 4.3977e+01     6.2486     2.0644    59.6840   997.5393  0.000e+00
      0.071    23.1898    23.1954     97.834  94.303025      0.102     5.4544     63.834    8.54474    8.52624 4.1729e+01     6.2274     2.0592    59.7624   997.5334  0.000e+00
      0.087    23.2235    23.2291     98.525  95.035727      0.123     5.4450     63.764    8.53928    8.52075 4.3706e+01     6.3737     2.0588    59.7684   997.5256  0.000e+00
      0.085    23.2334    23.2389     99.201  95.707401      0.120     5.4565     63.911    8.53767    8.51914 4.2433e+01     6.3271     2.0635    59.6973   997.5235  0.000e+00
      0.080    23.2260    23.2316    100.071  96.531764      0.114     5.4758     64.128    8.53885    8.52032 4.3237e+01     6.2635     2.0690    59.6159   997.5255  0.000e+00
      0.066    23.1612    23.1667     99.540  95.890612      0.094     5.4908     64.225    8.54933    8.53084 4.2892e+01     6.3143     2.0752    59.5241   997.5407  0.000e+00
      0.059    23.0837    23.0892     98.812  95.035770      0.084     5.5100     64.355    8.56190    8.54346 4.2813e+01     6.2741     2.0694    59.6099   997.5589  0.000e+00
      0.063    23.0451    23.0507     98.796  94.944192      0.089     5.5361     64.612    8.56816    8.54975 4.2248e+01     6.2550     2.0717    59.5759   997.5681  0.000e+00
      0.067    23.0455    23.0510     98.891  95.035782      0.095     5.5791     65.115    8.56810    8.54969 4.2774e+01     6.2295     2.0910    59.2886   997.5681  0.000e+00
      0.069    23.0520    23.0576     99.735  95.860114      0.098     5.6437     65.877    8.56702    8.54860 4.1633e+01     6.2401     2.0730    59.5566   997.5668  0.000e+00
      0.070    23.0559    23.0614    100.140  96.257026      0.100     5.7283     66.870    8.56638    8.54797 4.3486e+01     6.2550     2.0599    59.7521   997.5660  0.000e+00
      0.070    23.0654    23.0709    100.406  96.531814      0.100     5.8073     67.804    8.56483    8.54641 4.1853e+01     6.2274     2.0542    59.8365   997.5639  0.000e+00
      0.068    23.0449    23.0505    100.004  96.104370      0.097     5.8785     68.608    8.56816    8.54975 4.3576e+01     6.3695     2.0545    59.8320   997.5686  0.000e+00
      0.066    23.0182    23.0238     99.646  95.707468      0.094     5.9324     69.203    8.57251    8.55412 4.1748e+01     6.3779     2.0602    59.7476   997.5748  0.000e+00
      0.068    23.0074    23.0129     99.382  95.432691      0.097     5.9622     69.535    8.57428    8.55589 4.1988e+01     6.4034     2.0486    59.9209   997.5773  0.000e+00
      0.069    23.0087    23.0142     99.380  95.432691      0.098     5.9788     69.731    8.57406    8.55567 4.2833e+01     6.4691     2.0494    59.9090   997.5769  0.000e+00
      0.073    23.0146    23.0202     99.812  95.860126      0.103     5.9984     69.967    8.57309    8.55470 4.1940e+01     6.5073     2.0578    59.7832   997.5757  0.000e+00
      0.073    23.0126    23.0182    100.071  96.104380      0.103     6.0060     70.054    8.57341    8.55502 4.1414e+01     6.4988     2.0640    59.6899   997.5763  0.000e+00
      0.074    23.0076    23.0131    100.177  96.195977      0.105     6.0107     70.102    8.57423    8.55584 4.0135e+01     6.6175     2.0577    59.7847   997.5775  0.000e+00
      0.074    23.0053    23.0108    100.182  96.195978      0.105     6.0155     70.155    8.57460    8.55621 4.1301e+01     6.6154     2.0469    59.9460   997.5780  0.000e+00
      0.074    23.0064    23.0120    100.179  96.195978      0.105     6.0059     70.044    8.57441    8.55603 4.0681e+01     6.6175     2.0505    59.8927   997.5778  0.000e+00
      0.071    23.0093    23.0148     99.982  96.012786      0.102     5.9883     69.843    8.57395    8.55556 4.0961e+01     6.5921     2.0575    59.7876   997.5770  0.000e+00
      0.071    23.0127    23.0183     99.912  95.951721      0.102     5.9620     69.541    8.57340    8.55501 4.0384e+01     6.5094     2.0603    59.7462   997.5762  0.000e+00
      0.071    23.0150    23.0205     99.843  95.890657      0.102     5.9270     69.135    8.57303    8.55464 3.9568e+01     6.4521     2.0477    59.9342   997.5756  0.000e+00
      0.069    23.0161    23.0217     99.809  95.860125      0.098     5.8832     68.627    8.57285    8.55445 4.0006e+01     6.4924     2.0584    59.7743   997.5753  0.000e+00
      0.069    23.0165    23.0220     99.713  95.768531      0.098     5.8521     68.264    8.57279    8.55440 3.8575e+01     6.5263     2.0482    59.9268   997.5752  0.000e+00
      0.073    23.0159    23.0214     99.810  95.860125      0.103     5.8022     67.681    8.57289    8.55450 3.8832e+01     6.6048     2.0578    59.7832   997.5754  0.000e+00
      0.071    23.0146    23.0202     99.971  96.012784      0.102     5.7618     67.208    8.57309    8.55469 3.9279e+01     6.7383     2.0463    59.9549   997.5758  0.000e+00
      0.074    23.0131    23.0186     99.911  95.951721      0.105     5.7234     66.758    8.57334    8.55495 3.8153e+01     6.7447     2.0560    59.8098   997.5761  0.000e+00
      0.075    23.0116    23.0171     99.914  95.951722      0.106     5.6849     66.307    8.57358    8.55519 3.5880e+01     6.7616     2.0411    60.0334   997.5765  0.000e+00
      0.075    23.0097    23.0152     99.982  96.012786      0.106     5.6440     65.828    8.57389    8.55550 3.8144e+01     6.7722     2.0349    60.1267   997.5770  0.000e+00
      0.075    23.0076    23.0131     99.986  96.012786      0.106     5.6032     65.349    8.57423    8.55585 3.6544e+01     6.7807     2.0437    59.9934   997.5774  0.000e+00
      0.076    23.0058    23.0114     99.926  95.951723      0.108     5.5640     64.890    8.57452    8.55613 3.6872e+01     6.7468     2.0461    59.9579   997.5778  0.000e+00
      0.077    23.0042    23.0097     99.993  96.012787      0.109     5.5227     64.406    8.57479    8.55640 3.5447e+01     6.7871     2.0435    59.9964   997.5783  0.000e+00
      0.075    23.0027    23.0082     99.933  95.951724      0.106     5.4897     64.019    8.57503    8.55665 3.6236e+01     6.7447     2.0328    60.1578   997.5786  0.000e+00
      0.075    23.0012    23.0067     99.840  95.860130      0.106     5.4502     63.557    8.57527    8.55689 3.4947e+01     6.7765     2.0308    60.1874   997.5789  0.000e+00
      0.074    23.0002    23.0057     99.842  95.860130      0.105     5.4179     63.179    8.57544    8.55706 3.6982e+01     6.6959     2.0297    60.2037   997.5792  0.000e+00
      0.078    22.9998    23.0053     99.939  95.951725      0.111     5.3820     62.761    8.57550    8.55712 3.5839e+01     6.7256     2.0325    60.1622   997.5793  0.000e+00
      0.077    22.9991    23.0046    100.004  96.012789      0.109     5.3567     62.464    8.57561    8.55723 3.7280e+01     6.7892     2.0483    59.9253   997.5795  0.000e+00
      0.077    22.9980    23.0035    100.101  96.104385      0.109     5.3267     62.114    8.57579    8.55741 3.5774e+01     6.7871     2.0423    60.0156   997.5798  0.000e+00
      0.077    22.9962    23.0018    100.010  96.012790      0.109     5.2997     61.796    8.57608    8.55770 3.3929e+01     6.7362     2.0428    60.0082   997.5802  0.000e+00
      0.078    22.9949    23.0004     99.853  95.860132      0.111     5.2719     61.470    8.57629    8.55792 3.8663e+01     6.6514     2.0214    60.3295   997.5804  0.000e+00
      0.078    22.9945    23.0000     99.822  95.829601      0.111     5.2448     61.154    8.57637    8.55799 3.4771e+01     6.6472     2.0288    60.2185   997.5805  0.000e+00
      0.078    22.9946    23.0001     99.759  95.768538      0.111     5.2192     60.856    8.57635    8.55797 3.6931e+01     6.6005     2.0522    59.8661   997.5805  0.000e+00
      0.078    22.9948    23.0004     99.854  95.860132      0.111     5.1931     60.551    8.57631    8.55793 3.7220e+01     6.6472     2.0603    59.7462   997.5804  0.000e+00
      0.076    22.9944    22.9999     99.854  95.860132      0.108     5.1726     60.313    8.57638    8.55800 3.7615e+01     6.7404     2.0434    59.9979   997.5805  0.000e+00
      0.078    22.9932    22.9987    100.016  96.012791      0.111     5.1501     60.049    8.57658    8.55820 3.7805e+01     6.8231     2.0433    59.9993   997.5809  0.000e+00
      0.078    22.9919    22.9974    100.019  96.012791      0.111     5.1268     59.775    8.57679    8.55841 3.5979e+01     6.9206     2.0344    60.1341   997.5812  0.000e+00
      0.078    22.9905    22.9960     99.958  95.951728      0.111     5.1111     59.590    8.57702    8.55864 3.7718e+01     6.9821     2.0509    59.8868   997.5815  0.000e+00
      0.076    22.9895    22.9950     99.960  95.951728      0.108     5.0838     59.272    8.57717    8.55880 3.6754e+01     6.9800     2.0717    59.5759   997.5817  0.000e+00
      0.077    22.9883    22.9938     99.963  95.951729      0.109     5.0643     59.043    8.57737    8.55900 3.7067e+01     6.9948     2.0600    59.7506   997.5820  0.000e+00
      0.077    22.9876    22.9931     99.964  95.951729      0.109     5.0398     58.757    8.57748    8.55911 3.7857e+01     6.9143     2.0849    59.3790   997.5822  0.000e+00
      0.077    22.9866    22.9922     99.775  95.768540      0.109     5.0191     58.514    8.57764    8.55927 3.6914e+01     6.9270     2.1258    58.7749   997.5823  0.000e+00
      0.077    23.0021    23.0076     97.772  93.875679      0.109     5.0034     58.347    8.57518    8.55679 3.7503e+01     6.9567     2.0766    59.5033   997.5780  0.000e+00
      0.079    23.1823    23.1879     97.152  93.631398      0.113     5.0126     58.655    8.54596    8.52746 3.7075e+01     6.8443     2.0639    59.6914   997.5349  0.000e+00
      0.079    23.3824    23.3880     96.751  93.631337      0.113     5.2074     61.165    8.51374    8.49512 3.7025e+01     6.8104     2.0685    59.6233   997.4869  0.000e+00
      0.080    23.4940    23.4996     96.528  93.631303      0.114     5.6979     67.067    8.49586    8.47717 3.9396e+01     6.7044     2.0663    59.6558   997.4599  0.000e+00
      0.080    23.5481    23.5538     96.326  93.539702      0.114     6.3321     74.608    8.48721    8.46848 4.0411e+01     6.6281     2.0669    59.6470   997.4467  0.000e+00
      0.078    23.5738    23.5795     96.275  93.539694      0.111     6.9388     81.796    8.48311    8.46437 3.8654e+01     6.5115     2.0595    59.7580   997.4405  0.000e+00
      0.077    23.5865    23.5922     96.250  93.539691      0.109     7.4419     87.747    8.48109    8.46234 4.0924e+01     6.4924     2.0684    59.6247   997.4374  0.000e+00
      0.077    23.5925    23.5981     96.332  93.631273      0.109     7.8233     92.254    8.48013    8.46138 4.1329e+01     6.5285     2.0588    59.7684   997.4359  0.000e+00
      0.080    23.5954    23.6011     96.169  93.478632      0.114     8.0919     95.428    8.47967    8.46091 3.6821e+01     6.6027     2.0772    59.4930   997.4352  0.000e+00
      0.078    23.5975    23.6031     96.228  93.539687      0.111     8.2260     97.012    8.47934    8.46059 4.0495e+01     6.6980     2.0860    59.3627   997.4347  0.000e+00
      0.079    23.5988    23.6045     96.225  93.539687      0.113     8.2395     97.174    8.47913    8.46037 4.2229e+01     6.8316     2.0667    59.6499   997.4344  0.000e+00
      0.079    23.5999    23.6056     96.160  93.478631      0.113     8.1495     96.114    8.47895    8.46019 3.8004e+01     6.9058     2.0545    59.8320   997.4341  0.000e+00
      0.080    23.6005    23.6061     96.065  93.387047      0.114     8.0356     94.772    8.47886    8.46010 4.1074e+01     6.8846     2.0510    59.8853   997.4339  0.000e+00
      0.079    23.6008    23.6065     96.221  93.539686      0.113     7.9434     93.685    8.47880    8.46004 4.0061e+01     6.9185     2.0608    59.7388   997.4339  0.000e+00
      0.077    23.6008    23.6065     96.159  93.478630      0.109     7.8687     92.805    8.47880    8.46005 3.9814e+01     6.8168     2.0699    59.6025   997.4339  0.000e+00
      0.075    23.5992    23.6049     96.162  93.478631      0.106     7.8322     92.371    8.47906    8.46030 4.2882e+01     6.6959     2.0543    59.8350   997.4342  0.000e+00
      0.075    23.5971    23.6028     96.166  93.478632      0.106     7.7988     91.974    8.47940    8.46064 4.0634e+01     6.6027     2.0703    59.5966   997.4348  0.000e+00
      0.076    23.5951    23.6008     96.170  93.478632      0.108     7.7738     91.675    8.47971    8.46096 3.7058e+01     6.5793     2.0447    59.9786   997.4352  0.000e+00
      0.080    23.5937    23.5994     96.235  93.539688      0.114     7.7478     91.366    8.47994    8.46118 4.0690e+01     6.5772     2.0486    59.9209   997.4356  0.000e+00
      0.090    23.5926    23.5982     96.175  93.478633      0.128     7.7262     91.109    8.48012    8.46137 3.8267e+01     6.4076     2.0525    59.8616   997.4359  0.000e+00
      0.096    23.5917    23.5973     96.240  93.539689      0.136     7.7076     90.889    8.48026    8.46151 4.1178e+01     6.2974     2.0460    59.9594   997.4362  0.000e+00
      0.097    23.5909    23.5965     96.178  93.478634      0.138     7.6834     90.603    8.48039    8.46164 4.2219e+01     6.2168     2.0530    59.8542   997.4364  0.000e+00
      0.093    23.5902    23.5958     96.180  93.478634      0.133     7.6674     90.412    8.48051    8.46175 4.1291e+01     6.1532     2.0488    59.9179   997.4365  0.000e+00
      0.091    23.5896    23.5953     96.181  93.478634      0.130     7.6457     90.156    8.48059    8.46184 4.2423e+01     6.1999     2.0571    59.7935   997.4366  0.000e+00
      0.091    23.5890    23.5947     96.182  93.478634      0.130     7.6449     90.144    8.48069    8.46194 4.0943e+01     6.1363     2.0562    59.8069   997.4368  0.000e+00
      0.092    23.5886    23.5943     96.088  93.387051      0.131     7.6598     90.320    8.48075    8.46200 4.2961e+01     6.0663     2.0696    59.6070   997.4369  0.000e+00
      0.093    23.5889    23.5946     96.182  93.478634      0.133     7.6731     90.477    8.48070    8.46195 4.2394e+01     6.0388     2.0533    59.8498   997.4368  0.000e+00
      0.096    23.5897    23.5954     96.181  93.478634      0.136     7.6879     90.654    8.48058    8.46182 4.0504e+01     6.0006     2.0348    60.1282   997.4366  0.000e+00
      0.091    23.5901    23.5957     96.180  93.478634      0.130     7.7068     90.876    8.48052    8.46177 4.2200e+01     5.9540     2.0427    60.0097   997.4365  0.000e+00
      0.090    23.5906    23.5963     96.085  93.387050      0.128     7.7136     90.957    8.48044    8.46168 4.3977e+01     5.9646     2.0641    59.6884   997.4364  0.000e+00
      0.093    23.5913    23.5970     96.177  93.478633      0.133     7.7137     90.961    8.48032    8.46157 4.0868e+01     5.9200     2.0546    59.8306   997.4362  0.000e+00
      0.096    23.5920    23.5977     96.082  93.387050      0.136     7.6928     90.715    8.48021    8.46146 4.3736e+01     5.9052     2.0420    60.0201   997.4360  0.000e+00
      0.093    23.5917    23.5973     96.177  93.478633      0.133     7.6727     90.478    8.48026    8.46151 4.2007e+01     5.8904     2.0457    59.9638   997.4362  0.000e+00
      0.093    23.5916    23.5972     96.177  93.478633      0.133     7.6569     90.290    8.48028    8.46153 4.1140e+01     5.8882     2.0566    59.8009   997.4362  0.000e+00
      0.093    23.5916    23.5972     96.177  93.478633      0.133     7.6464     90.167    8.48028    8.46153 4.2142e+01     5.8352     2.0508    59.8883   997.4362  0.000e+00
      0.098    23.5914    23.5971     96.083  93.387050      0.139     7.6433     90.130    8.48031    8.46156 4.2045e+01     5.8586     2.0678    59.6336   997.4362  0.000e+00
      0.097    23.5910    23.5967     96.178  93.478634      0.138     7.6464     90.166    8.48036    8.46161 4.0783e+01     5.8310     2.0347    60.1296   997.4363  0.000e+00
      0.096    23.5907    23.5964     96.179  93.478634      0.136     7.6578     90.300    8.48042    8.46167 4.3916e+01     5.8204     2.0403    60.0452   997.4364  0.000e+00
      0.093    23.5907    23.5964     96.241  93.539689      0.133     7.6672     90.411    8.48042    8.46167 4.3228e+01     5.8119     2.0345    60.1326   997.4364  0.000e+00
      0.096    23.5902    23.5959     96.085  93.387050      0.136     7.6882     90.658    8.48049    8.46174 4.2588e+01     5.9285     2.0560    59.8098   997.4365  0.000e+00
      0.096    23.5901    23.5957     96.180  93.478634      0.136     7.7046     90.851    8.48052    8.46177 4.4392e+01     6.0536     2.0696    59.6070   997.4366  0.000e+00
      0.092    23.5897    23.5954     96.243  93.539690      0.131     7.7206     91.039    8.48058    8.46182 4.2365e+01     6.0557     2.0664    59.6544   997.4366  0.000e+00
      0.095    23.5901    23.5957     96.243  93.539690      0.134     7.7386     91.252    8.48052    8.46177 4.2074e+01     5.9942     2.0481    59.9283   997.4366  0.000e+00
      0.095    23.5904    23.5961     96.179  93.478634      0.134     7.7500     91.387    8.48046    8.46171 4.2823e+01     5.9921     2.0513    59.8794   997.4365  0.000e+00
      0.092    23.5908    23.5964     96.116  93.417578      0.131     7.7499     91.386    8.48041    8.46166 4.3926e+01     6.1384     2.0593    59.7610   997.4363  0.000e+00
      0.096    23.5904    23.5961     96.179  93.478634      0.136     7.7391     91.258    8.48046    8.46171 4.1386e+01     6.2084     2.0402    60.0467   997.4365  0.000e+00
      0.093    23.5909    23.5965     96.084  93.387050      0.133     7.7155     90.980    8.48039    8.46164 4.3257e+01     6.1384     2.0452    59.9712   997.4363  0.000e+00
      0.095    23.5914    23.5971     96.177  93.478633      0.134     7.6796     90.558    8.48031    8.46155 4.2017e+01     6.1384     2.0621    59.7180   997.4362  0.000e+00
      0.093    23.5916    23.5972     96.177  93.478633      0.133     7.6568     90.289    8.48028    8.46153 4.2510e+01     6.1617     2.0541    59.8380   997.4362  0.000e+00
      0.095    23.5914    23.5971     96.177  93.478633      0.134     7.6251     89.915    8.48031    8.46155 4.4955e+01     6.0366     2.0432    60.0008   997.4362  0.000e+00
      0.095    23.5909    23.5965     96.178  93.478634      0.134     7.5843     89.434    8.48039    8.46164 4.3426e+01     6.0409     2.0620    59.7195   997.4364  0.000e+00
      0.093    23.5911    23.5968     96.178  93.478634      0.133     7.5589     89.135    8.48035    8.46160 4.3347e+01     5.9709     2.0435    59.9964   997.4363  0.000e+00
      0.093    23.5920    23.5977     96.239  93.539689      0.133     7.5548     89.087    8.48021    8.46145 4.1405e+01     5.9391     2.0525    59.8616   997.4361  0.000e+00
      0.097    23.5927    23.5984     96.080  93.387050      0.138     7.5602     89.152    8.48010    8.46134 4.3686e+01     5.9752     2.0530    59.8542   997.4359  0.000e+00
      0.096    23.5930    23.5987     96.237  93.539689      0.136     7.5809     89.397    8.48005    8.46130 4.2725e+01     6.0027     2.0425    60.0127   997.4359  0.000e+00
      0.095    23.5929    23.5986     96.174  93.478633      0.134     7.6163     89.814    8.48007    8.46131 4.2628e+01     6.0430     2.0438    59.9919   997.4359  0.000e+00
      0.096    23.5924    23.5980     96.081  93.387050      0.136     7.6448     90.149    8.48015    8.46140 4.3317e+01     6.0621     2.0599    59.7521   997.4360  0.000e+00
      0.096    23.5926    23.5982     96.175  93.478633      0.136     7.6516     90.230    8.48012    8.46137 4.5151e+01     6.1045     2.0330    60.1548   997.4359  0.000e+00
      0.098    23.5926    23.5982     96.238  93.539689      0.139     7.6550     90.270    8.48012    8.46137 4.3486e+01     6.0494     2.0543    59.8350   997.4360  0.000e+00
      0.099    23.5919    23.5976     96.176  93.478633      0.141     7.6603     90.331    8.48022    8.46147 4.2190e+01     6.0070     2.0466    59.9505   997.4361  0.000e+00
      0.100    23.5918    23.5974     96.082  93.387050      0.142     7.6553     90.272    8.48025    8.46150 4.2413e+01     5.9497     2.0410    60.0349   997.4361  0.000e+00
      0.100    23.5920    23.5977     96.082  93.387050      0.142     7.6437     90.136    8.48021    8.46146 4.2588e+01     5.8861     2.0511    59.8839   997.4361  0.000e+00
      0.099    23.5927    23.5984     96.237  93.539689      0.141     7.6336     90.018    8.48009    8.46134 4.3576e+01     5.8077     2.0497    59.9046   997.4359  0.000e+00
      0.102    23.5933    23.5989     96.111  93.417577      0.145     7.6399     90.093    8.48001    8.46126 4.2579e+01     5.7399     2.0561    59.8083   997.4358  0.000e+00
      0.101    23.5934    23.5990     96.173  93.478633      0.144     7.6584     90.312    8.48000    8.46124 4.3178e+01     5.7907     2.0600    59.7506   997.4358  0.000e+00
      0.102    23.5934    23.5991     96.173  93.478633      0.145     7.6686     90.432    8.47998    8.46123 4.2094e+01     5.7865     2.0570    59.7950   997.4358  0.000e+00
      0.102    23.5934    23.5991     96.173  93.478633      0.145     7.6576     90.302    8.47998    8.46123 4.3756e+01     5.7589     2.0477    59.9342   997.4358  0.000e+00
      0.102    23.5929    23.5986     96.174  93.478633      0.145     7.6367     90.055    8.48007    8.46131 4.5934e+01     5.8246     2.0447    59.9786   997.4359  0.000e+00
      0.100    23.5920    23.5977     96.176  93.478633      0.142     7.6235     89.898    8.48021    8.46145 4.2647e+01     5.8310     2.0568    59.7980   997.4361  0.000e+00
      0.101    23.5914    23.5971     96.177  93.478634      0.144     7.6198     89.853    8.48031    8.46155 4.2452e+01     5.8289     2.0411    60.0334   997.4363  0.000e+00
      0.101    23.5914    23.5971     96.177  93.478634      0.144     7.6184     89.837    8.48031    8.46155 4.3726e+01     5.8077     2.0559    59.8113   997.4363  0.000e+00
      0.104    23.5914    23.5971     96.083  93.387050      0.149     7.6184     89.836    8.48031    8.46156 4.4842e+01     5.8988     2.0556    59.8157   997.4362  0.000e+00
      0.101    23.5918    23.5974     96.177  93.478633      0.144     7.6213     89.871    8.48025    8.46150 4.3287e+01     5.9222     2.0537    59.8439   997.4362  0.000e+00
      0.102    23.5916    23.5972     96.177  93.478633      0.145     7.6221     89.881    8.48028    8.46153 4.2981e+01     5.9264     2.0425    60.0127   997.4362  0.000e+00
      0.101    23.5908    23.5964     96.084  93.387050      0.144     7.6175     89.825    8.48041    8.46166 4.2931e+01     5.8204     2.0383    60.0749   997.4364  0.000e+00
      0.098    23.5901    23.5957     96.086  93.387051      0.139     7.6215     89.871    8.48052    8.46177 4.4280e+01     5.8480     2.0404    60.0438   997.4365  0.000e+00
      0.090    23.5894    23.5951     96.181  93.478634      0.128     7.6373     90.056    8.48062    8.46187 4.3347e+01     5.9222     2.0479    59.9312   997.4367  0.000e+00
      0.082    23.5894    23.5951     96.181  93.478634      0.117     7.6622     90.350    8.48062    8.46187 4.2384e+01     6.0260     2.0560    59.8098   997.4366  0.000e+00
      0.084    23.5895    23.5952     96.087  93.387051      0.119     7.6743     90.492    8.48061    8.46186 4.5255e+01     6.0684     2.0518    59.8720   997.4366  0.000e+00
      0.091    23.5900    23.5956     96.243  93.539690      0.130     7.6679     90.418    8.48053    8.46178 4.3906e+01     6.1299     2.0490    59.9149   997.4366  0.000e+00
      0.098    23.5905    23.5962     96.179  93.478634      0.139     7.6601     90.327    8.48045    8.46170 4.2190e+01     6.1575     2.0501    59.8987   997.4365  0.000e+00
      0.103    23.5914    23.5971     96.177  93.478634      0.147     7.6519     90.232    8.48031    8.46155 4.2355e+01     6.1448     2.0512    59.8824   997.4363  0.000e+00
      0.103    23.5915    23.5972     96.114  93.417578      0.147     7.6448     90.148    8.48029    8.46154 4.3237e+01     6.2232     2.0482    59.9268   997.4362  0.000e+00
      0.103    23.5918    23.5975     96.239  93.539689      0.147     7.6489     90.197    8.48023    8.46148 4.4229e+01     6.2635     2.0464    59.9534   997.4362  0.000e+00
      0.096    23.5923    23.5980     96.175  93.478633      0.136     7.6521     90.235    8.48017    8.46141 4.3396e+01     6.1575     2.0451    59.9727   997.4360  0.000e+00
      0.093    23.5924    23.5980     96.175  93.478633      0.133     7.6670     90.411    8.48015    8.46140 4.2074e+01     6.1723     2.0393    60.0601   997.4360  0.000e+00
      0.092    23.5926    23.5982     96.175  93.478633      0.131     7.6900     90.682    8.48012    8.46137 4.3010e+01     6.2635     2.0475    59.9372   997.4359  0.000e+00
      0.097    23.5930    23.5987     96.080  93.387050      0.138     7.7245     91.091    8.48005    8.46130 4.4382e+01     6.1914     2.0592    59.7624   997.4358  0.000e+00
      0.099    23.5935    23.5992     96.173  93.478633      0.141     7.7565     91.469    8.47997    8.46121 4.4351e+01     6.1278     2.0642    59.6869   997.4357  0.000e+00
      0.102    23.5940    23.5996     96.078  93.387049      0.145     7.7721     91.653    8.47990    8.46114 4.3666e+01     6.1575     2.0531    59.8528   997.4356  0.000e+00
      0.100    23.5945    23.6002     96.171  93.478633      0.142     7.7597     91.508    8.47981    8.46106 4.4047e+01     6.1257     2.0535    59.8468   997.4355  0.000e+00
      0.099    23.5955    23.6012     96.075  93.387049      0.141     7.7384     91.259    8.47966    8.46090 4.3386e+01     6.1638     2.0513    59.8809   997.4352  0.000e+00
      0.097    23.5958    23.6014     96.074  93.387049      0.138     7.7270     91.125    8.47961    8.46086 4.3616e+01     6.1893     2.0552    59.8217   997.4351  0.000e+00
      0.096    23.5961    23.6018     96.168  93.478632      0.136     7.7133     90.963    8.47956    8.46080 4.3208e+01     6.1660     2.0513    59.8809   997.4351  0.000e+00
      0.097    23.5967    23.6024     96.167  93.478632      0.138     7.6819     90.594    8.47946    8.46070 4.2951e+01     6.0727     2.0516    59.8750   997.4349  0.000e+00
      0.096    23.5973    23.6029     96.166  93.478632      0.136     7.6661     90.409    8.47937    8.46062 4.4372e+01     6.0388     2.0438    59.9919   997.4348  0.000e+00
      0.099    23.5978    23.6035     96.165  93.478632      0.141     7.6571     90.304    8.47929    8.46053 4.4027e+01     6.0366     2.0546    59.8306   997.4347  0.000e+00
      0.098    23.5983    23.6039     96.164  93.478631      0.139     7.6358     90.054    8.47922    8.46046 4.3099e+01     6.0706     2.0572    59.7921   997.4346  0.000e+00
      0.100    23.5985    23.6042     96.069  93.387048      0.142     7.6354     90.049    8.47917    8.46042 4.2725e+01     6.1702     2.0623    59.7151   997.4345  0.000e+00
      0.099    23.5989    23.6045     96.162  93.478631      0.141     7.6310     89.998    8.47912    8.46036 4.2853e+01     6.2295     2.0595    59.7580   997.4344  0.000e+00
      0.097    23.5991    23.6047     96.162  93.478631      0.138     7.6258     89.937    8.47909    8.46033 4.3866e+01     6.2105     2.0663    59.6558   997.4344  0.000e+00
      0.096    23.5994    23.6051     96.067  93.387048      0.136     7.6110     89.763    8.47903    8.46028 4.4535e+01     6.1554     2.0560    59.8098   997.4342  0.000e+00
      0.097    23.5995    23.6052     96.161  93.478631      0.138     7.5929     89.550    8.47902    8.46026 4.2774e+01     6.1342     2.0525    59.8616   997.4343  0.000e+00
      0.097    23.6001    23.6058     96.160  93.478631      0.138     7.5868     89.478    8.47892    8.46016 4.4280e+01     6.1808     2.0619    59.7210   997.4341  0.000e+00
      0.091    23.6015    23.6071     96.220  93.539686      0.130     7.5798     89.398    8.47870    8.45994 4.4893e+01     6.2910     2.0573    59.7906   997.4338  0.000e+00
      0.087    23.6024    23.6081     96.155  93.478630      0.124     7.5710     89.296    8.47855    8.45979 4.4647e+01     6.2783     2.0518    59.8720   997.4335  0.000e+00
      0.090    23.6023    23.6080     96.156  93.478630      0.128     7.5472     89.015    8.47856    8.45980 4.2374e+01     6.3037     2.0496    59.9061   997.4335  0.000e+00
      0.096    23.6027    23.6084     96.061  93.387047      0.136     7.5304     88.817    8.47851    8.45975 4.1263e+01     6.3143     2.0649    59.6766   997.4334  0.000e+00
      0.100    23.6031    23.6087     96.154  93.478630      0.142     7.5243     88.746    8.47845    8.45969 4.2912e+01     6.2190     2.0767    59.5019   997.4334  0.000e+00
      0.099    23.6036    23.6093     96.153  93.478630      0.141     7.5382     88.911    8.47836    8.45960 4.3756e+01     6.2168     2.0700    59.6011   997.4333  0.000e+00
      0.096    23.6045    23.6101     96.151  93.478629      0.136     7.5664     89.246    8.47822    8.45946 4.3656e+01     6.2190     2.0801    59.4500   997.4330  0.000e+00
      0.096    23.6056    23.6113     96.055  93.387046      0.136     7.6053     89.706    8.47804    8.45928 4.4037e+01     6.1342     2.0736    59.5478   997.4327  0.000e+00
      0.096    23.6064    23.6120     96.148  93.478629      0.136     7.6542     90.284    8.47793    8.45916 4.3297e+01     6.1660     2.0680    59.6307   997.4326  0.000e+00
      0.108    23.6062    23.6118     96.148  93.478629      0.153     7.6922     90.732    8.47795    8.45919 4.3257e+01     6.1872     2.0644    59.6840   997.4327  0.000e+00
      0.114    23.6064    23.6121     96.147  93.478629      0.163     7.7151     91.003    8.47791    8.45915 4.2103e+01     6.1087     2.0830    59.4071   997.4327  0.000e+00
      0.099    23.6062    23.6118     96.148  93.478629      0.141     7.7275     91.148    8.47795    8.45919 4.1738e+01     6.0896     2.0789    59.4678   997.4326  0.000e+00
      0.085    23.6054    23.6110     96.150  93.478629      0.120     7.7227     91.091    8.47808    8.45932 4.2608e+01     6.1299     2.0901    59.3020   997.4328  0.000e+00
      0.084    23.6046    23.6102     96.151  93.478629      0.119     7.7314     91.192    8.47821    8.45945 4.3366e+01     6.1108     2.0698    59.6040   997.4330  0.000e+00
      0.101    23.6039    23.6096     96.152  93.478630      0.144     7.7337     91.217    8.47831    8.45955 3.9714e+01     6.1299     2.0689    59.6173   997.4332  0.000e+00
      0.115    23.6036    23.6093     96.216  93.539686      0.164     7.7302     91.176    8.47836    8.45960 3.9333e+01     6.2062     2.0639    59.6914   997.4334  0.000e+00
      0.131    23.6035    23.6092     96.216  93.539686      0.186     7.7328     91.207    8.47838    8.45962 3.6662e+01     6.1956     2.0664    59.6544   997.4335  0.000e+00
      0.132    23.6031    23.6087     96.217  93.539686      0.188     7.7389     91.278    8.47845    8.45969 3.7016e+01     6.3122     2.0734    59.5507   997.4336  0.000e+00
      0.131    23.6027    23.6084     96.312  93.631270      0.186     7.7566     91.485    8.47850    8.45974 3.6435e+01     6.3080     2.0536    59.8454   997.4337  0.000e+00
      0.101    23.6025    23.6082     96.218  93.539686      0.144     7.7681     91.621    8.47853    8.45977 3.6037e+01     6.2168     2.0515    59.8765   997.4336  0.000e+00
      0.006    23.6021    23.6077     96.156  93.478629      0.008     7.7639     91.570    8.47861    8.45985 3.9714e+01     6.0091     2.0696    59.6070   997.4332  0.000e+00
     -0.123    23.6011    23.6068     95.970  93.295462     -0.175     7.7486     91.389    8.47877    8.46001 4.1997e+01     6.0006     2.0865    59.3553   997.4328  0.000e+00
     -0.209    23.5988    23.6045     96.163  93.478629     -0.297     7.7342     91.215    8.47913    8.46037 3.4947e+01     5.9412     2.0846    59.3834   997.4331  0.000e+00
     -0.221    23.5974    23.6030     96.228  93.539685     -0.314     7.7188     91.031    8.47936    8.46060 3.8859e+01     5.9328     2.0762    59.5093   997.4334  0.000e+00
     -0.198    23.5988    23.6045     96.225  93.539684     -0.281     7.7035     90.852    8.47913    8.46037 3.7101e+01     6.0006     2.0653    59.6706   997.4332  0.000e+00
     -0.161    23.6000    23.6057     96.066  93.387045     -0.230     7.6935     90.736    8.47893    8.46018 3.7067e+01     5.7695     2.0710    59.5862   997.4330  0.000e+00
     -0.120    23.6004    23.6061     96.159  93.478629     -0.170     7.6846     90.633    8.47888    8.46012 3.3435e+01     6.0812     2.0700    59.6011   997.4331  0.000e+00
     -0.126    23.6011    23.6068     96.221  93.539684     -0.180     7.6850     90.638    8.47876    8.46000 3.5880e+01     6.4564     2.0665    59.6529   997.4329  0.000e+00
     -0.185    23.6012    23.6069     96.158  93.478628     -0.262     7.6915     90.715    8.47875    8.45999 4.8077e+01     6.5709     2.0664    59.6544   997.4326  0.000e+00
     -0.252    23.6012    23.6069     96.158  93.478627     -0.358     7.6965     90.774    8.47875    8.45999 5.4609e+01     6.5539     2.0797    59.4560   997.4323  0.000e+00
     -0.315    23.6006    23.6062     96.159  93.478627     -0.448     7.6977     90.787    8.47885    8.46009 5.8912e+01     6.7786     2.0791    59.4648   997.4322  0.000e+00
     -0.365    23.5997    23.6053     96.161  93.478627     -0.519     7.7028     90.845    8.47899    8.46023 4.1084e+01     6.9821     2.0735    59.5492   997.4322  0.000e+00
     -0.388    23.5995    23.6052     96.067  93.387043     -0.552     7.7139     90.976    8.47902    8.46026 2.4658e+01     7.0669     2.0673    59.6410   997.4321  0.000e+00
     -0.460    23.6001    23.6058     96.160  93.478626     -0.655     7.7158     91.000    8.47892    8.46016 1.4098e+01     6.9122     2.0641    59.6884   997.4316  0.000e+00
     -0.587    23.6007    23.6064     96.159  93.478625     -0.834     7.7299     91.167    8.47882    8.46006 1.0187e+01     3.4292     2.0710    59.5862   997.4309  0.000e+00
     -0.671    23.6009    23.6066     96.158  93.478624     -0.955     7.7634     91.562    8.47879    8.46003 1.0002e+01     3.9422     2.0736    59.5478   997.4305  0.000e+00
     -0.720    23.6004    23.6061     96.159  93.478624     -1.023     7.7987     91.978    8.47887    8.46012 1.2531e+01     3.0497     2.1772    58.0242   997.4304  0.000e+00
     -0.726    23.5999    23.6056     96.160  93.478624     -1.033     7.8283     92.326    8.47895    8.46019 1.4345e+01     2.3777     2.5876    52.3667   997.4305  0.000e+00
     -0.700    23.5993    23.6050     96.162  93.478624     -0.995     7.8393     92.455    8.47905    8.46029 1.3374e+01     1.8329     2.1800    57.9842   997.4308  0.000e+00
     -0.668    23.5992    23.6049     96.162  93.478624     -0.950     7.8410     92.475    8.47906    8.46030 1.5507e+01     1.5149     2.0945    59.2368   997.4309  0.000e+00
     -0.659    23.5983    23.6040     96.069  93.387041     -0.937     7.8413     92.477    8.47920    8.46045 1.2323e+01     2.6024     2.0774    59.4900   997.4312  0.000e+00
     -0.668    23.5982    23.6038     96.070  93.387041     -0.950     7.8677     92.788    8.47923    8.46047 1.3963e+01     5.4855     2.0829    59.4086   997.4312  0.000e+00
     -0.687    23.5984    23.6041     96.163  93.478624     -0.977     7.9000     93.169    8.47919    8.46043 1.1050e+01     5.9773     2.0832    59.4041   997.4310  0.000e+00
     -0.706    23.5990    23.6046     96.162  93.478624     -1.005     7.9183     93.387    8.47910    8.46034 1.3876e+01    -0.3612     2.0963    59.2102   997.4308  0.000e+00
     -0.718    23.5983    23.6040     43.377  42.165789     -1.022     7.9117     93.295    8.48032    8.46156 1.0297e+01     1.8286     2.1030    59.1110   997.4135  0.000e+00
     -0.709    23.5859    23.5915     16.616  16.147972     -1.008     7.8775     92.864    8.48282    8.46408 7.4610e+00     2.9034     2.0778    59.4841   997.4084  0.000e+00
     -0.702    23.5469    23.5525     12.715  12.347033     -0.998     7.8479     92.446    8.48912    8.47040 1.0170e+01     3.9909     2.1438    58.5113   997.4168  0.000e+00
     -0.673    23.5102    23.5159     42.263  41.008735     -0.958     7.8542     92.463    8.49441    8.47571 5.3164e+00     4.8219     2.7744    49.9770   997.4347  0.000e+00
     -0.621    23.5186    23.5243     91.226  88.533744     -0.883     7.8355     92.268    8.49203    8.47332 6.5250e+00     5.4855     2.2433    57.0736   997.4490  0.000e+00
     -0.633    23.5431    23.5488     96.084  93.295475     -0.900     7.7782     91.637    8.48801    8.46929 5.4834e+00     5.9836     2.1357    58.6298   997.4447  0.000e+00
     -0.650    23.5617    23.5674     96.142  93.387053     -0.925     7.6976     90.720    8.48505    8.46631 4.8697e+00     6.4267     2.1676    58.1648   997.4401  0.000e+00
     -0.687    23.5733    23.5789     96.119  93.387049     -0.977     7.6291     89.932    8.48320    8.46446 4.3476e+00     6.8062     2.1328    58.6727   997.4371  0.000e+00
     -0.704    23.5802    23.5859     96.011  93.295464     -1.002     7.5968     89.563    8.48210    8.46335 4.3926e+00     7.0860     2.1269    58.7586   997.4353  0.000e+00
     -0.704    23.5842    23.5899     96.003  93.295462     -1.002     7.6304     89.966    8.48146    8.46271 6.6854e+00     7.2450     2.0867    59.3523   997.4344  0.000e+00
     -0.691    23.5862    23.5918     95.999  93.295462     -0.983     7.6830     90.589    8.48115    8.46240 6.9478e+00     7.3828     2.0803    59.4471   997.4340  0.000e+00
     -0.674    23.5870    23.5927     95.966  93.264934     -0.959     7.7128     90.942    8.48101    8.46226 6.5160e+00     7.4782     2.0802    59.4486   997.4338  0.000e+00
     -0.664    23.5869    23.5925     96.092  93.387045     -0.944     7.7187     91.012    8.48103    8.46228 6.1448e+00     7.6329     2.0727    59.5611   997.4339  0.000e+00
     -0.655    23.5866    23.5923     96.093  93.387045     -0.931     7.6847     90.610    8.48107    8.46233 8.2166e+00     7.7368     2.0813    59.4323   997.4340  0.000e+00
     -0.656    23.5859    23.5915     96.094  93.387045     -0.933     7.6161     89.800    8.48119    8.46244 6.3306e+00     7.9403     2.0749    59.5285   997.4342  0.000e+00
     -0.657    23.5853    23.5909     96.095  93.387045     -0.934     7.5076     88.520    8.48129    8.46254 5.6272e+00     8.0124     2.0834    59.4012   997.4343  0.000e+00
     -0.664    23.5844    23.5900     96.097  93.387046     -0.944     7.3618     86.799    8.48143    8.46268 8.1007e+00     8.1777     2.0681    59.6292   997.4345  0.000e+00
     -0.661    23.5834    23.5891     96.099  93.387046     -0.941     7.1880     84.749    8.48159    8.46284 6.1986e+00     8.2435     2.0783    59.4767   997.4348  0.000e+00
     -0.666    23.5833    23.5890     96.005  93.295463     -0.947     7.0079     82.625    8.48160    8.46285 6.2872e+00     8.4067     2.0758    59.5152   997.4348  0.000e+00
     -0.668    23.5831    23.5888     96.099  93.387046     -0.950     6.8393     80.636    8.48163    8.46288 5.4884e+00     8.4046     2.0654    59.6692   997.4348  0.000e+00
     -0.666    23.5824    23.5881     96.101  93.387046     -0.947     6.6909     78.886    8.48174    8.46299 7.1350e+00     8.4851     2.0746    59.5329   997.4350  0.000e+00
     -0.666    23.5822    23.5878     96.101  93.387046     -0.947     6.5616     77.361    8.48178    8.46304 5.1722e+00     8.5084     2.0640    59.6899   997.4351  0.000e+00
     -0.673    23.5820    23.5876     96.102  93.387046     -0.958     6.4427     75.958    8.48181    8.46307 5.7669e+00     8.5233     2.0764    59.5063   997.4351  0.000e+00
     -0.682    23.5820    23.5876     96.102  93.387046     -0.970     6.3483     74.846    8.48181    8.46307 6.4036e+00     8.5275     2.0634    59.6988   997.4350  0.000e+00
     -0.672    23.5816    23.5873     96.008  93.295463     -0.956     6.2874     74.127    8.48187    8.46312 2.9389e+01     8.4703     2.0833    59.4027   997.4351  0.000e+00
     -0.625    23.5813    23.5869     96.103  93.387047     -0.889     6.2512     73.700    8.48193    8.46318 4.0337e+01     8.4152     2.0910    59.2886   997.4355  0.000e+00
     -0.549    23.5799    23.5856     77.076  74.895753     -0.781     6.2380     73.539    8.48255    8.46380 4.4586e+01     8.4809     2.0829    59.4086   997.4297  0.000e+00
     -0.502    23.5785    23.5842     59.979  58.280305     -0.714     6.2391     73.547    8.48314    8.46439 4.8121e+01     8.3516     2.0739    59.5433   997.4246  0.000e+00
     -0.495    23.5764    23.5820     74.288  72.181466     -0.705     6.2728     73.944    8.48318    8.46443 5.2127e+01     8.3155     2.0857    59.3671   997.4299  0.000e+00
     -0.517    23.5727    23.5784     95.774  93.051248     -0.736     6.4055     75.507    8.48329    8.46455 5.2994e+01     8.2032     2.0813    59.4323   997.4379  0.000e+00
     -0.522    23.5675    23.5731     96.287  93.539691     -0.742     6.4219     75.693    8.48412    8.46538 5.1794e+01     8.0802     2.0723    59.5670   997.4393  0.000e+00
     -0.512    23.5638    23.5694     96.232  93.478637     -0.728     6.4929     76.525    8.48472    8.46598 5.1675e+01     8.1905     2.0517    59.8735   997.4403  0.000e+00
     -0.513    23.5615    23.5672     96.236  93.478637     -0.730     6.5677     77.403    8.48507    8.46634 5.1616e+01     8.2710     2.0501    59.8987   997.4408  0.000e+00
     -0.509    23.5598    23.5654     96.397  93.631278     -0.723     6.6811     78.737    8.48535    8.46662 5.2199e+01     8.3600     2.0600    59.7506   997.4413  0.000e+00
     -0.512    23.5577    23.5634     95.804  93.051253     -0.728     6.8174     80.340    8.48569    8.46696 5.1877e+01     8.3325     2.0572    59.7921   997.4416  0.000e+00
     -0.510    23.5558    23.5615     58.720  57.030895     -0.725     7.0039     82.528    8.48678    8.46805 4.9952e+01     8.2986     2.0641    59.6884   997.4297  0.000e+00
     -0.518    23.5547    23.5603     54.612  53.039387     -0.737     7.0506     83.075    8.48705    8.46832 4.4801e+01     8.4385     2.0563    59.8054   997.4286  0.000e+00
     -0.548    23.5545    23.5602     85.660  83.193381     -0.780     7.0988     83.649    8.48642    8.46769 4.2384e+01     8.4597     2.0620    59.7195   997.4388  0.000e+00
     -0.553    23.5558    23.5615     96.153  93.387055     -0.786     7.2278     85.173    8.48598    8.46725 4.4189e+01     8.3982     2.0603    59.7462   997.4420  0.000e+00
     -0.531    23.5576    23.5633     96.244  93.478638     -0.755     7.3633     86.773    8.48570    8.46696 3.7623e+01     8.4046     2.0569    59.7965   997.4417  0.000e+00
     -0.536    23.5599    23.5656     96.240  93.478637     -0.762     7.4529     87.832    8.48533    8.46659 9.0819e+00     8.4448     2.0621    59.7180   997.4411  0.000e+00
     -0.596    23.5624    23.5681     96.235  93.478636     -0.848     7.5000     88.392    8.48493    8.46619 7.2271e+00     8.3812     2.0518    59.8720   997.4402  0.000e+00
     -0.622    23.5648    23.5705     96.136  93.387052     -0.884     7.5357     88.817    8.48455    8.46581 5.8548e+00     8.3749     2.0632    59.7017   997.4395  0.000e+00
     -0.648    23.5669    23.5725     96.132  93.387051     -0.922     7.5177     88.608    8.48422    8.46548 6.8639e+00     8.3728     2.0750    59.5270   997.4389  0.000e+00
     -0.684    23.5693    23.5749     96.127  93.387050     -0.973     7.5353     88.820    8.48384    8.46510 6.1448e+00     8.2880     2.0677    59.6351   997.4381  0.000e+00
     -0.687    23.5717    23.5773     96.216  93.478633     -0.977     7.5584     89.096    8.48345    8.46471 6.0999e+00     8.3176     2.0662    59.6573   997.4376  0.000e+00
     -0.673    23.5737    23.5794     96.118  93.387049     -0.958     7.5918     89.493    8.48313    8.46439 5.6389e+00     8.3579     2.0654    59.6692   997.4371  0.000e+00
     -0.658    23.5743    23.5800     96.211  93.478632     -0.936     7.6338     89.989    8.48303    8.46429 6.3321e+00     8.5805     2.0644    59.6840   997.4370  0.000e+00
     -0.646    23.5743    23.5800     94.766  92.074400     -0.919     7.6696     90.411    8.48306    8.46432 4.6187e+00     8.6038     2.0632    59.7017   997.4366  0.000e+00
     -0.646    23.5745    23.5802     64.281  62.455739     -0.919     7.7046     90.816    8.48369    8.46494 5.1509e+00     8.7501     2.0669    59.6470   997.4264  0.000e+00
     -0.647    23.5749    23.5805     67.355  65.443079     -0.920     7.7510     91.365    8.48356    8.46482 5.6557e+00     8.7692     2.0627    59.7091   997.4273  0.000e+00
     -0.653    23.5749    23.5805     94.168  91.494420     -0.928     7.7898     91.829    8.48299    8.46425 4.9157e+00     8.7247     2.0703    59.5966   997.4362  0.000e+00
     -0.658    23.5747    23.5803     96.022  93.295466     -0.936     7.8072     92.034    8.48298    8.46423 5.2957e+00     8.7268     2.0678    59.6336   997.4369  0.000e+00
     -0.661    23.5747    23.5803     96.210  93.478632     -0.941     7.7935     91.872    8.48297    8.46423 5.3347e+00     8.7183     2.0610    59.7358   997.4369  0.000e+00
     -0.657    23.5750    23.5807     96.115  93.387048     -0.934     7.7397     91.239    8.48292    8.46418 4.9575e+00     8.7501     2.0700    59.6011   997.4368  0.000e+00
     -0.659    23.5758    23.5815     96.208  93.478632     -0.937     7.6630     90.335    8.48279    8.46405 5.3335e+00     8.7162     2.0610    59.7358   997.4367  0.000e+00
     -0.661    23.5762    23.5819     96.113  93.387048     -0.941     7.5744     89.291    8.48273    8.46399 5.5568e+00     8.6208     2.0661    59.6588   997.4365  0.000e+00
     -0.668    23.5767    23.5824     96.112  93.387048     -0.950     7.4953     88.361    8.48265    8.46390 4.7627e+00     8.4448     2.0617    59.7239   997.4364  0.000e+00
     -0.674    23.5772    23.5828     96.111  93.387048     -0.959     7.4082     87.335    8.48258    8.46383 5.7590e+00     8.4703     2.0444    59.9831   997.4362  0.000e+00
     -0.676    23.5775    23.5832     96.110  93.387048     -0.961     7.3129     86.211    8.48252    8.46378 5.7709e+00     8.4936     2.0583    59.7758   997.4361  0.000e+00
     -0.669    23.5780    23.5836     96.204  93.478631     -0.952     7.2287     85.220    8.48245    8.46370 5.2390e+00     8.5551     2.0608    59.7388   997.4361  0.000e+00
     -0.667    23.5779    23.5835     96.110  93.387048     -0.948     7.1602     84.412    8.48246    8.46372 5.5326e+00     8.5212     2.0539    59.8409   997.4361  0.000e+00
     -0.662    23.5775    23.5832     96.110  93.387048     -0.942     7.1222     83.963    8.48252    8.46378 5.4048e+00     8.4448     2.0575    59.7876   997.4362  0.000e+00
     -0.660    23.5777    23.5834     96.110  93.387048     -0.939     7.1032     83.739    8.48249    8.46375 4.8910e+00     8.4766     2.0399    60.0512   997.4362  0.000e+00
     -0.660    23.5780    23.5836     96.110  93.387048     -0.939     7.0873     83.553    8.48245    8.46371 6.1575e+00     8.5381     2.0559    59.8113   997.4361  0.000e+00
     -0.661    23.5785    23.5842     96.109  93.387047     -0.941     7.0640     83.278    8.48237    8.46362 4.3946e+00     8.7353     2.0552    59.8217   997.4360  0.000e+00
     -0.670    23.5784    23.5841     96.109  93.387047     -0.953     7.0457     83.063    8.48238    8.46363 5.5288e+00     8.7967     2.0738    59.5448   997.4360  0.000e+00
     -0.670    23.5782    23.5838     96.109  93.387047     -0.953     7.0062     82.597    8.48242    8.46368 6.7238e+00     8.6780     2.0539    59.8409   997.4360  0.000e+00
     -0.671    23.5772    23.5828     96.205  93.478631     -0.955     6.9566     82.010    8.48258    8.46383 4.2921e+00     8.7310     2.0560    59.8098   997.4363  0.000e+00
     -0.668    23.5766    23.5823     96.144  93.417576     -0.950     6.8926     81.256    8.48266    8.46392 5.1074e+00     8.6272     2.0449    59.9757   997.4364  0.000e+00
     -0.670    23.5767    23.5824     96.206  93.478631     -0.953     6.8284     80.498    8.48265    8.46390 6.1801e+00     8.8413     2.0431    60.0023   997.4364  0.000e+00
     -0.671    23.5769    23.5826     96.206  93.478631     -0.955     6.7706     79.818    8.48262    8.46387 4.2754e+00     8.9430     2.0432    60.0008   997.4364  0.000e+00
     -0.679    23.5766    23.5823     96.112  93.387048     -0.966     6.7243     79.271    8.48266    8.46392 4.8131e+00     9.1041     2.0700    59.6011   997.4364  0.000e+00
     -0.688    23.5764    23.5820     79.781  77.518895     -0.978     6.6862     78.818    8.48306    8.46431 5.3567e+00     9.0660     2.0629    59.7062   997.4309  0.000e+00
     -0.715    23.5766    23.5822     70.742  68.735763     -1.017     6.6411     78.286    8.48322    8.46448 4.3158e+00     9.0405     2.0573    59.7906   997.4277  0.000e+00
     -0.713    23.5764    23.5820     88.165  85.665018     -1.014     6.5972     77.771    8.48288    8.46413 4.4148e+00     9.1020     2.0499    59.9016   997.4336  0.000e+00
     -0.718    23.5762    23.5819     96.207  93.478631     -1.022     6.5574     77.303    8.48273    8.46399 4.7052e+00     9.0172     2.0564    59.8039   997.4363  0.000e+00
     -0.701    23.5761    23.5818     96.113  93.387048     -0.997     6.5576     77.305    8.48275    8.46400 9.8651e+00     8.7861     2.0650    59.6751   997.4364  0.000e+00
     -0.616    23.5760    23.5817     96.113  93.387049     -0.877     6.5795     77.563    8.48276    8.46402 3.4620e+01     8.7183     2.0745    59.5344   997.4368  0.000e+00
     -0.524    23.5751    23.5808     96.209  93.478633     -0.745     6.5910     77.697    8.48290    8.46416 3.0816e+01     8.6717     2.0661    59.6588   997.4374  0.000e+00
     -0.501    23.5749    23.5805     96.273  93.539689     -0.712     6.6406     78.282    8.48294    8.46420 1.0844e+01     8.6505     2.0679    59.6321   997.4376  0.000e+00
     -0.527    23.5744    23.5801     96.274  93.539689     -0.750     6.6573     78.478    8.48301    8.46427 1.1661e+01     8.6526     2.0733    59.5522   997.4376  0.000e+00
     -0.558    23.5729    23.5786     96.277  93.539689     -0.794     6.7183     79.195    8.48326    8.46451 1.6581e+01     8.6144     2.0768    59.4989   997.4378  0.000e+00
     -0.594    23.5716    23.5772     74.892  72.760891     -0.845     6.8136     80.312    8.48393    8.46519 1.3911e+01     8.5318     2.0701    59.5996   997.4308  0.000e+00
     -0.607    23.5709    23.5765     52.399  50.906843     -0.864     6.9108     81.452    8.48451    8.46578 1.8907e+01     8.4512     2.0607    59.7402   997.4235  0.000e+00
     -0.617    23.5706    23.5763     58.452  56.787113     -0.878     6.9786     82.252    8.48443    8.46569 1.5903e+01     8.4024     2.0681    59.6292   997.4255  0.000e+00
     -0.622    23.5706    23.5763     69.244  67.272283     -0.884     7.0408     82.988    8.48420    8.46547 1.4306e+01     8.4385     2.0599    59.7521   997.4291  0.000e+00
     -0.622    23.5715    23.5771     51.551  50.084351     -0.884     7.0729     83.364    8.48443    8.46569 1.4874e+01     8.5763     2.0673    59.6410   997.4230  0.000e+00
     -0.621    23.5726    23.5782     50.202  48.774528     -0.883     7.0724     83.359    8.48429    8.46555 1.0897e+01     8.5763     2.0620    59.7195   997.4224  0.000e+00
     -0.623    23.5735    23.5792     62.745  60.962236     -0.886     7.0481     83.076    8.48387    8.46513 9.4991e+00     8.7374     2.0576    59.7861   997.4262  0.000e+00
     -0.625    23.5744    23.5801     95.677  92.959666     -0.889     6.9626     82.077    8.48303    8.46428 7.2520e+00     8.6886     2.0477    59.9342   997.4370  0.000e+00
     -0.609    23.5751    23.5808     96.115  93.387049     -0.866     6.8710     80.999    8.48290    8.46416 1.1035e+01     8.6081     2.0487    59.9194   997.4370  0.000e+00
     -0.569    23.5760    23.5817     96.019  93.295466     -0.809     6.7708     79.819    8.48276    8.46402 2.4868e+01     8.5551     2.0491    59.9135   997.4370  0.000e+00
     -0.539    23.5760    23.5817     96.208  93.478633     -0.767     6.6877     78.839    8.48276    8.46402 2.0164e+01     8.6229     2.0552    59.8217   997.4372  0.000e+00
     -0.509    23.5755    23.5811     96.209  93.478633     -0.723     6.6097     77.918    8.48285    8.46410 1.6227e+01     8.5890     2.0660    59.6603   997.4374  0.000e+00
     -0.509    23.5745    23.5802     96.274  93.539689     -0.723     6.5425     77.124    8.48300    8.46426 6.6518e+00     8.5169     2.0632    59.7017   997.4377  0.000e+00
     -0.569    23.5704    23.5761     96.219  93.478634     -0.809     6.4796     76.377    8.48365    8.46491 5.2691e+00     8.4682     2.0664    59.6544   997.4384  0.000e+00
     -0.604    23.5648    23.5705     96.230  93.478635     -0.859     6.4395     75.897    8.48455    8.46581 5.3237e+00     8.5318     2.0845    59.3849   997.4396  0.000e+00
     -0.607    23.5630    23.5686     96.139  93.387053     -0.864     6.4275     75.753    8.48485    8.46611 4.8408e+00     8.5233     2.0718    59.5744   997.4400  0.000e+00
     -0.620    23.5662    23.5718     96.133  93.387052     -0.881     6.4465     75.981    8.48434    8.46560 3.7796e+00     8.6208     2.0725    59.5640   997.4392  0.000e+00
     -0.644    23.5718    23.5775     96.122  93.387050     -0.916     6.5004     76.625    8.48343    8.46469 4.3128e+00     8.5996     2.0638    59.6929   997.4377  0.000e+00
     -0.666    23.5766    23.5822     96.112  93.387048     -0.947     6.5594     77.327    8.48268    8.46393 3.6779e+00     8.6632     2.0567    59.7995   997.4364  0.000e+00
     -0.694    23.5806    23.5863     96.199  93.478630     -0.987     6.6170     78.012    8.48202    8.46328 4.4534e+00     8.6293     2.0561    59.8083   997.4353  0.000e+00
     -0.706    23.5837    23.5893     96.098  93.387045     -1.005     6.6644     78.576    8.48154    8.46279 3.3481e+00     8.6780     2.0590    59.7654   997.4345  0.000e+00
     -0.714    23.5859    23.5915     96.094  93.387045     -1.016     6.7333     79.391    8.48119    8.46244 4.1225e+00     8.6865     2.0635    59.6973   997.4339  0.000e+00
     -0.711    23.5870    23.5927     96.186  93.478628     -1.011     6.8241     80.463    8.48100    8.46225 4.4158e+00     8.6738     2.0638    59.6929   997.4337  0.000e+00
     -0.706    23.5876    23.5932     96.185  93.478628     -1.005     6.9534     81.988    8.48092    8.46217 3.7033e+00     8.7098     2.0617    59.7239   997.4336  0.000e+00
     -0.698    23.5882    23.5939     96.184  93.478627     -0.992     7.0815     83.500    8.48082    8.46207 3.2595e+00     8.6717     2.0560    59.8098   997.4335  0.000e+00
     -0.698    23.5888    23.5945     96.182  93.478627     -0.992     7.1813     84.678    8.48072    8.46197 3.3520e+00     8.5911     2.0513    59.8809   997.4333  0.000e+00
     -0.670    23.5891    23.5948     96.119  93.417572     -0.953     7.2381     85.348    8.48068    8.46193 3.3844e+00     8.5826     2.0681    59.6292   997.4334  0.000e+00
     -0.646    23.5881    23.5938     96.184  93.478628     -0.919     7.2511     85.500    8.48083    8.46208 3.5423e+00     8.5466     2.0745    59.5344   997.4337  0.000e+00
     -0.644    23.5876    23.5932     96.185  93.478628     -0.916     7.2059     84.966    8.48092    8.46217 6.2599e+00     8.7247     2.0761    59.5107   997.4339  0.000e+00
     -0.643    23.5870    23.5926     96.092  93.387045     -0.914     7.1148     83.891    8.48102    8.46227 4.7845e+00     8.8052     2.0699    59.6025   997.4340  0.000e+00
     -0.648    23.5863    23.5920     96.093  93.387045     -0.922     6.9898     82.416    8.48112    8.46237 5.2872e+00     8.7098     2.0619    59.7210   997.4341  0.000e+00
     -0.650    23.5860    23.5916     96.094  93.387045     -0.925     6.8744     81.055    8.48117    8.46242 4.8809e+00     8.7183     2.0591    59.7639   997.4342  0.000e+00
     -0.647    23.5859    23.5915     96.094  93.387045     -0.920     6.7899     80.058    8.48119    8.46244 4.4422e+00     8.6823     2.0647    59.6795   997.4342  0.000e+00
     -0.640    23.5854    23.5911     96.189  93.478629     -0.911     6.7783     79.921    8.48126    8.46251 4.3876e+00     8.5869     2.0628    59.7077   997.4344  0.000e+00
     -0.638    23.5856    23.5913     95.749  93.051243     -0.908     6.8133     80.334    8.48124    8.46249 4.3876e+00     8.6335     2.0643    59.6855   997.4342  0.000e+00
     -0.638    23.5857    23.5914     91.100  88.533725     -0.908     6.8627     80.916    8.48132    8.46258 4.5161e+00     8.6441     2.0615    59.7284   997.4326  0.000e+00
     -0.633    23.5861    23.5917     68.971  67.028376     -0.900     6.8993     81.343    8.48174    8.46299 4.1376e+00     8.6038     2.0670    59.6455   997.4252  0.000e+00
     -0.624    23.5860    23.5916     77.663  75.475253     -0.887     6.9096     81.467    8.48157    8.46282 3.7675e+00     8.5975     2.0580    59.7802   997.4281  0.000e+00
     -0.631    23.5853    23.5909     96.001  93.295463     -0.897     6.8895     81.232    8.48129    8.46254 3.3130e+00     8.5869     2.0630    59.7047   997.4344  0.000e+00
     -0.649    23.5850    23.5907     96.096  93.387046     -0.923     6.8316     80.549    8.48133    8.46258 3.3466e+00     8.5487     2.0623    59.7151   997.4344  0.000e+00
     -0.673    23.5856    23.5913     96.189  93.478628     -0.958     6.7584     79.687    8.48123    8.46248 3.3782e+00     8.5636     2.0548    59.8276   997.4342  0.000e+00
     -0.682    23.5867    23.5923     96.187  93.478628     -0.970     6.6941     78.930    8.48106    8.46231 6.4227e+00     8.6060     2.0561    59.8083   997.4339  0.000e+00
     -0.649    23.5871    23.5928     72.923  70.870197     -0.923     6.6298     78.168    8.48149    8.46274 6.4241e+00     8.5296     2.0544    59.8335   997.4261  0.000e+00
     -0.606    23.5879    23.5936     44.138  42.896604     -0.862     6.5581     77.319    8.48196    8.46321 9.6904e+00     8.5636     2.0551    59.8232   997.4167  0.000e+00
     -0.569    23.5875    23.5932     17.210  16.725779     -0.809     6.5039     76.673    8.48256    8.46381 1.1752e+01     8.4872     2.0535    59.8468   997.4088  0.000e+00
     -0.569    23.5850    23.5907     49.688  48.287171     -0.809     6.4886     76.496    8.48232    8.46357 1.0231e+01     8.4342     2.0626    59.7106   997.4194  0.000e+00
     -0.591    23.5829    23.5885     58.092  56.451920     -0.841     6.5144     76.799    8.48248    8.46374 1.1507e+01     8.3600     2.0564    59.8039   997.4225  0.000e+00
     -0.602    23.5814    23.5870     57.905  56.269090     -0.856     6.5746     77.505    8.48273    8.46398 1.0131e+01     8.3749     2.0606    59.7417   997.4228  0.000e+00
     -0.605    23.5806    23.5862     55.147  53.587787     -0.861     6.6284     78.138    8.48291    8.46417 1.0018e+01     8.4067     2.0622    59.7165   997.4221  0.000e+00
     -0.607    23.5800    23.5857     55.743  54.166674     -0.864     6.6622     78.536    8.48298    8.46424 1.1542e+01     8.4915     2.0553    59.8202   997.4224  0.000e+00
     -0.605    23.5798    23.5854     56.089  54.501827     -0.861     6.6837     78.790    8.48302    8.46428 1.0570e+01     8.6547     2.0616    59.7254   997.4226  0.000e+00
     -0.609    23.5796    23.5852     59.883  58.188881     -0.866     6.6866     78.824    8.48297    8.46422 9.7863e+00     8.7713     2.0643    59.6855   997.4238  0.000e+00
     -0.607    23.5786    23.5843     90.957  88.381126     -0.864     6.6577     78.488    8.48246    8.46372 9.5559e+00     8.5593     2.0556    59.8157   997.4344  0.000e+00
     -0.607    23.5773    23.5829     96.457  93.722856     -0.864     6.6172     78.010    8.48256    8.46381 1.4520e+01     8.5106     2.0404    60.0438   997.4366  0.000e+00
     -0.602    23.5749    23.5805     96.367  93.631272     -0.856     6.5769     77.531    8.48294    8.46420 4.5452e+01     8.6547     2.0429    60.0067   997.4372  0.000e+00
     -0.565    23.5722    23.5779     96.372  93.631273     -0.803     6.5334     77.015    8.48337    8.46463 4.9792e+01     8.6929     2.0521    59.8676   997.4380  0.000e+00
     -0.532    23.5690    23.5747     96.379  93.631275     -0.756     6.5001     76.618    8.48388    8.46514 5.0829e+01     8.6802     2.0602    59.7476   997.4389  0.000e+00
     -0.544    23.5662    23.5718     96.384  93.631275     -0.773     6.4778     76.350    8.48433    8.46559 4.9259e+01     8.6378     2.0505    59.8927   997.4396  0.000e+00
     -0.562    23.5633    23.5690     96.390  93.631276     -0.800     6.4480     75.994    8.48478    8.46605 4.5379e+01     8.6759     2.0649    59.6766   997.4402  0.000e+00
     -0.568    23.5614    23.5671     96.299  93.539693     -0.808     6.4200     75.662    8.48508    8.46635 4.8286e+01     8.7395     2.0615    59.7284   997.4406  0.000e+00
     -0.557    23.5612    23.5668     96.300  93.539693     -0.792     6.3704     75.077    8.48513    8.46639 5.1557e+01     8.7798     2.0530    59.8542   997.4407  0.000e+00
     -0.547    23.5604    23.5660     95.987  93.234416     -0.778     6.3045     74.300    8.48526    8.46653 4.9769e+01     8.7247     2.0581    59.7787   997.4408  0.000e+00
     -0.552    23.5599    23.5656     95.988  93.234416     -0.786     6.2400     73.539    8.48533    8.46660 2.5200e+01     8.5402     2.0710    59.5862   997.4409  0.000e+00
     -0.568    23.5594    23.5651     96.052  93.295471     -0.808     6.1783     72.811    8.48542    8.46668 2.4416e+01     8.5212     2.0416    60.0260   997.4410  0.000e+00
     -0.566    23.5586    23.5643     94.294  91.586000     -0.805     6.1280     72.216    8.48558    8.46685 2.0570e+01     8.5339     2.0453    59.9697   997.4406  0.000e+00
     -0.561    23.5581    23.5637     61.667  59.895519     -0.798     6.0970     71.845    8.48636    8.46763 1.4644e+01     8.6060     2.0421    60.0186   997.4299  0.000e+00
     -0.565    23.5573    23.5629     51.472  49.992968     -0.803     6.0655     71.471    8.48670    8.46797 1.5575e+01     8.5530     2.0539    59.8409   997.4267  0.000e+00
     -0.560    23.5570    23.5627     48.964  47.556167     -0.797     6.0373     71.138    8.48680    8.46807 1.5303e+01     8.6568     2.0634    59.6988   997.4260  0.000e+00
     -0.554    23.5571    23.5627     46.016  44.693303     -0.787     6.0127     70.847    8.48685    8.46812 1.7035e+01     8.6611     2.0635    59.6973   997.4251  0.000e+00
     -0.550    23.5590    23.5647     53.164  51.637976     -0.783     5.9881     70.561    8.48639    8.46765 1.3950e+01     8.5848     2.0478    59.9327   997.4269  0.000e+00
     -0.547    23.5622    23.5679     80.307  78.006964     -0.778     5.9746     70.411    8.48530    8.46657 1.4634e+01     8.6865     2.0510    59.8853   997.4351  0.000e+00
     -0.547    23.5670    23.5726     96.289  93.539691     -0.778     5.9632     70.286    8.48421    8.46547 1.8859e+01     8.7162     2.0495    59.9075   997.4393  0.000e+00
     -0.550    23.5710    23.5767     96.280  93.539690     -0.783     5.9476     70.107    8.48355    8.46481 1.4755e+01     8.6526     2.0437    59.9934   997.4383  0.000e+00
     -0.552    23.5745    23.5802     96.274  93.539689     -0.786     5.9304     69.910    8.48300    8.46426 1.6791e+01     8.5954     2.0403    60.0452   997.4375  0.000e+00
     -0.548    23.5768    23.5825     96.112  93.387049     -0.780     5.9296     69.903    8.48263    8.46389 1.9514e+01     8.5975     2.0291    60.2140   997.4369  0.000e+00
     -0.528    23.5782    23.5839     96.203  93.478632     -0.751     5.9511     70.158    8.48241    8.46366 3.8903e+01     8.5890     2.0376    60.0852   997.4367  0.000e+00
     -0.506    23.5790    23.5847     96.265  93.539688     -0.720     5.9828     70.534    8.48228    8.46353 3.2350e+01     8.6229     2.0352    60.1222   997.4366  0.000e+00
     -0.509    23.5786    23.5843     96.265  93.539688     -0.723     6.0200     70.971    8.48235    8.46360 1.3587e+01     8.5763     2.0406    60.0408   997.4367  0.000e+00
     -0.536    23.5785    23.5842     96.203  93.478632     -0.762     6.0655     71.507    8.48236    8.46362 1.3681e+01     8.6696     2.0421    60.0186   997.4366  0.000e+00
     -0.572    23.5791    23.5848     96.202  93.478631     -0.814     6.1078     72.006    8.48226    8.46352 1.1755e+01     8.6526     2.0389    60.0660   997.4363  0.000e+00
     -0.583    23.5792    23.5849     96.264  93.539687     -0.830     6.1461     72.459    8.48225    8.46350 9.2034e+00     8.6865     2.0453    59.9697   997.4362  0.000e+00
     -0.591    23.5787    23.5843     96.202  93.478631     -0.841     6.1766     72.817    8.48233    8.46359 9.8178e+00     8.7628     2.0515    59.8765   997.4363  0.000e+00
     -0.602    23.5793    23.5850     96.107  93.387048     -0.856     6.2255     73.394    8.48224    8.46349 1.1301e+01     8.7268     2.0564    59.8039   997.4360  0.000e+00
     -0.605    23.5804    23.5860     96.199  93.478631     -0.861     6.2669     73.884    8.48207    8.46332 1.2563e+01     8.7141     2.0651    59.6736   997.4358  0.000e+00
     -0.610    23.5806    23.5863     96.199  93.478631     -0.867     6.3241     74.559    8.48202    8.46328 1.0785e+01     8.7014     2.0572    59.7921   997.4357  0.000e+00
     -0.612    23.5809    23.5866     96.198  93.478630     -0.870     6.3667     75.062    8.48198    8.46323 1.0449e+01     8.6229     2.0543    59.8350   997.4356  0.000e+00
     -0.617    23.5812    23.5868     96.197  93.478630     -0.878     6.3766     75.178    8.48194    8.46319 6.0971e+00     8.6229     2.0482    59.9268   997.4356  0.000e+00
     -0.616    23.5813    23.5869     96.260  93.539686     -0.876     6.3740     75.149    8.48192    8.46318 1.0815e+01     8.6102     2.0617    59.7239   997.4356  0.000e+00
     -0.616    23.5808    23.5865     96.261  93.539686     -0.876     6.3402     74.749    8.48199    8.46325 2.3569e+01     8.6484     2.0653    59.6706   997.4357  0.000e+00
     -0.616    23.5790    23.5847     96.265  93.539687     -0.876     6.2846     74.091    8.48228    8.46353 8.4942e+00     8.7501     2.0552    59.8217   997.4361  0.000e+00
     -0.622    23.5784    23.5841     96.203  93.478631     -0.884     6.2072     73.177    8.48238    8.46363 7.0070e+00     8.7607     2.0686    59.6218   997.4362  0.000e+00
     -0.622    23.5782    23.5838     96.203  93.478631     -0.884     6.1377     72.358    8.48242    8.46368 7.0601e+00     8.7416     2.0484    59.9238   997.4363  0.000e+00
     -0.625    23.5782    23.5839     96.203  93.478631     -0.889     6.0984     71.894    8.48241    8.46366 9.6837e+00     8.6441     2.0297    60.2037   997.4362  0.000e+00
     -0.626    23.5783    23.5840     96.203  93.478631     -0.891     6.0927     71.828    8.48239    8.46365 8.1081e+00     8.6696     2.0449    59.9757   997.4362  0.000e+00
     -0.630    23.5782    23.5839     96.266  93.539687     -0.897     6.1064     71.989    8.48240    8.46366 1.1065e+01     8.7501     2.0573    59.7906   997.4362  0.000e+00
     -0.635    23.5775    23.5832     96.205  93.478631     -0.903     6.1219     72.171    8.48252    8.46377 7.6444e+00     8.7225     2.0646    59.6810   997.4364  0.000e+00
     -0.632    23.5770    23.5827     96.206  93.478631     -0.898     6.1366     72.343    8.48260    8.46386 8.8498e+00     8.7204     2.0415    60.0275   997.4365  0.000e+00
     -0.632    23.5768    23.5825     96.206  93.478632     -0.898     6.1451     72.443    8.48263    8.46389 8.7932e+00     8.8667     2.0497    59.9046   997.4365  0.000e+00
     -0.628    23.5768    23.5825     96.269  93.539687     -0.894     6.1346     72.319    8.48263    8.46389 8.4051e+00     8.7522     2.0537    59.8439   997.4366  0.000e+00
     -0.633    23.5766    23.5823     96.206  93.478632     -0.900     6.1215     72.165    8.48266    8.46392 7.3087e+00     8.6759     2.0511    59.8839   997.4366  0.000e+00
     -0.634    23.5763    23.5819     96.207  93.478632     -0.901     6.0869     71.756    8.48272    8.46397 6.5250e+00     8.8158     2.0495    59.9075   997.4367  0.000e+00
     -0.633    23.5761    23.5818     96.208  93.478632     -0.900     6.0438     71.248    8.48275    8.46400 6.3757e+00     8.7904     2.0455    59.9668   997.4367  0.000e+00
     -0.633    23.5760    23.5817     96.208  93.478632     -0.900     5.9973     70.699    8.48276    8.46402 7.3574e+00     8.9133     2.0486    59.9209   997.4367  0.000e+00
     -0.634    23.5762    23.5819     96.207  93.478632     -0.901     5.9532     70.180    8.48273    8.46399 7.3305e+00     8.9918     2.0406    60.0408   997.4367  0.000e+00
     -0.630    23.5763    23.5819     96.207  93.478632     -0.897     5.9159     69.741    8.48272    8.46397 8.0821e+00     9.0448     2.0367    60.0985   997.4367  0.000e+00
     -0.625    23.5760    23.5817     96.208  93.478632     -0.889     5.8808     69.327    8.48276    8.46402 9.0840e+00     8.9685     2.0421    60.0186   997.4368  0.000e+00
     -0.619    23.5757    23.5813     96.114  93.387049     -0.881     5.8428     68.878    8.48282    8.46408 6.9208e+00     8.8582     2.0451    59.9727   997.4369  0.000e+00
     -0.619    23.5757    23.5813     96.051  93.325993     -0.881     5.7982     68.352    8.48282    8.46408 8.7150e+00     8.7247     2.0464    59.9534   997.4368  0.000e+00
     -0.606    23.5757    23.5813     96.114  93.387049     -0.862     5.7546     67.838    8.48282    8.46408 9.1971e+00     8.7925     2.0505    59.8927   997.4369  0.000e+00
     -0.572    23.5757    23.5813     96.208  93.478632     -0.814     5.7164     67.388    8.48282    8.46407 2.7772e+01     8.8243     2.0514    59.8779   997.4371  0.000e+00
     -0.557    23.5751    23.5808     96.209  93.478633     -0.792     5.6816     66.977    8.48290    8.46416 1.4725e+01     8.8285     2.0563    59.8054   997.4373  0.000e+00
     -0.567    23.5750    23.5807     96.272  93.539688     -0.806     5.6563     66.679    8.48291    8.46417 1.0550e+01     8.7713     2.0353    60.1208   997.4373  0.000e+00
     -0.591    23.5749    23.5805     96.210  93.478632     -0.840     5.6145     66.186    8.48294    8.46420 5.7117e+00     8.8073     2.0476    59.9357   997.4372  0.000e+00
     -0.612    23.5736    23.5793     96.275  93.539688     -0.870     5.5790     65.766    8.48314    8.46440 3.5618e+00     8.7946     2.0444    59.9831   997.4374  0.000e+00
     -0.651    23.5718    23.5774     96.216  93.478633     -0.926     5.5408     65.314    8.48344    8.46470 2.9067e+00     8.7225     2.0418    60.0230   997.4377  0.000e+00
     -0.689    23.5710    23.5766     96.123  93.387049     -0.980     5.5067     64.911    8.48357    8.46483 2.8292e+00     8.5042     2.0525    59.8616   997.4377  0.000e+00
     -0.688    23.5717    23.5773     96.216  93.478633     -0.978     5.4740     64.525    8.48345    8.46471 2.5702e+00     8.5508     2.0635    59.6973   997.4376  0.000e+00
     -0.682    23.5730    23.5787     96.214  93.478632     -0.970     5.4473     64.212    8.48324    8.46450 2.0090e+00     8.5106     2.0639    59.6914   997.4373  0.000e+00
     -0.714    23.5742    23.5798     96.211  93.478632     -1.015     5.4375     64.098    8.48306    8.46432 1.7442e+00     8.5487     2.0560    59.8098   997.4368  0.000e+00
     -0.752    23.5748    23.5804     96.116  93.387048     -1.070     5.4416     64.148    8.48296    8.46422 1.9239e+00     8.8476     2.0626    59.7106   997.4365  0.000e+00
     -0.741    23.5774    23.5831     96.205  93.478630     -1.055     5.4572     64.335    8.48253    8.46379 2.5578e+00     8.8900     2.0626    59.7106   997.4359  0.000e+00
     -0.682    23.5804    23.5860     96.199  93.478630     -0.970     5.5115     64.979    8.48207    8.46332 2.9087e+00     8.7459     2.0631    59.7032   997.4355  0.000e+00
     -0.637    23.5812    23.5868     96.197  93.478630     -0.906     5.6244     66.310    8.48194    8.46319 2.7018e+00     8.6632     2.0603    59.7462   997.4355  0.000e+00
     -0.626    23.5819    23.5875     89.914  87.373986     -0.890     5.7904     68.268    8.48196    8.46321 3.0514e+00     8.5296     2.0754    59.5211   997.4332  0.000e+00
     -0.598    23.5828    23.5884     52.480  50.998231     -0.850     6.0138     70.896    8.48261    8.46387 4.3277e+00     8.3770     2.0749    59.5285   997.4207  0.000e+00
     -0.557    23.5828    23.5884     44.550  43.292473     -0.792     6.2630     73.832    8.48278    8.46403 6.6412e+00     8.4872     2.0656    59.6662   997.4183  0.000e+00
     -0.537    23.5815    23.5872     54.644  53.100315     -0.764     6.4712     76.286    8.48277    8.46402 1.0189e+01     8.6696     2.0736    59.5478   997.4220  0.000e+00
     -0.510    23.5806    23.5862     57.844  56.208148     -0.725     6.6437     78.319    8.48286    8.46411 1.3020e+01     8.6844     2.0724    59.5655   997.4234  0.000e+00
     -0.498    23.5797    23.5853     46.904  45.576480     -0.708     6.7800     79.923    8.48322    8.46448 1.1324e+01     8.5890     2.0668    59.6484   997.4201  0.000e+00
     -0.503    23.5784    23.5841     76.922  74.743256     -0.715     6.8595     80.863    8.48279    8.46405 1.0447e+01     8.7543     2.0582    59.7773   997.4302  0.000e+00
     -0.513    23.5771    23.5827     96.206  93.478632     -0.730     6.9158     81.529    8.48259    8.46385 1.5111e+01     8.8179     2.0591    59.7639   997.4370  0.000e+00
     -0.507    23.5781    23.5837     96.109  93.387049     -0.722     6.9277     81.672    8.48244    8.46369 1.5647e+01     8.7671     2.0537    59.8439   997.4368  0.000e+00
     -0.491    23.5790    23.5846     96.202  93.478632     -0.698     6.8974     81.316    8.48229    8.46355 1.6380e+01     8.7840     2.0435    59.9964   997.4367  0.000e+00
     -0.525    23.5794    23.5851     96.264  93.539687     -0.747     6.8512     80.771    8.48222    8.46347 1.5697e+01     8.7734     2.0523    59.8646   997.4364  0.000e+00
     -0.565    23.5798    23.5854     96.200  93.478631     -0.803     6.7832     79.970    8.48216    8.46342 3.2291e+01     8.6568     2.0552    59.8217   997.4361  0.000e+00
     -0.608    23.5797    23.5853     96.358  93.631271     -0.865     6.7014     79.005    8.48218    8.46343 3.6704e+01     8.4321     2.0609    59.7373   997.4360  0.000e+00
     -0.611    23.5780    23.5836     96.549  93.814440     -0.869     6.6359     78.231    8.48244    8.46370 3.8390e+01     8.2753     2.0663    59.6558   997.4365  0.000e+00
     -0.582    23.5757    23.5813     96.366  93.631272     -0.828     6.5705     77.456    8.48281    8.46407 3.9860e+01     8.2731     2.0687    59.6203   997.4371  0.000e+00
     -0.548    23.5726    23.5783     96.277  93.539689     -0.780     6.5044     76.673    8.48330    8.46456 4.2716e+01     8.2583     2.0661    59.6588   997.4380  0.000e+00
     -0.518    23.5715    23.5771     96.217  93.478634     -0.737     6.4666     76.226    8.48348    8.46474 4.1595e+01     8.3155     2.0573    59.7906   997.4383  0.000e+00
     -0.529    23.5719    23.5776     96.216  93.478634     -0.753     6.4551     76.091    8.48341    8.46467 4.1225e+01     8.2710     2.0617    59.7239   997.4382  0.000e+00
     -0.561    23.5737    23.5794     96.212  93.478633     -0.798     6.4715     76.287    8.48313    8.46439 4.0199e+01     8.2837     2.0737    59.5463   997.4376  0.000e+00
     -0.599    23.5749    23.5805     96.273  93.539688     -0.851     6.4793     76.380    8.48294    8.46420 3.8354e+01     8.2604     2.0779    59.4826   997.4372  0.000e+00
     -0.628    23.5761    23.5818     96.113  93.387048     -0.894     6.4742     76.322    8.48275    8.46400 3.6419e+01     8.2922     2.0809    59.4382   997.4367  0.000e+00
     -0.630    23.5773    23.5829     96.205  93.478631     -0.897     6.4531     76.074    8.48256    8.46382 3.8161e+01     8.3155     2.0862    59.3597   997.4364  0.000e+00
     -0.593    23.5793    23.5850     96.201  93.478631     -0.844     6.4131     75.606    8.48224    8.46349 3.9360e+01     8.3940     2.0741    59.5404   997.4361  0.000e+00
     -0.541    23.5806    23.5863     96.199  93.478631     -0.770     6.3796     75.214    8.48202    8.46328 4.2569e+01     8.3282     2.0868    59.3508   997.4360  0.000e+00
     -0.507    23.5810    23.5867     96.198  93.478631     -0.722     6.3283     74.608    8.48197    8.46322 4.5027e+01     8.3261     2.0746    59.5329   997.4361  0.000e+00
     -0.499    23.5814    23.5871     96.260  93.539687     -0.709     6.2824     74.068    8.48189    8.46315 4.5703e+01     8.2498     2.0671    59.6440   997.4360  0.000e+00
     -0.496    23.5811    23.5867     96.260  93.539687     -0.706     6.2291     73.440    8.48195    8.46320 4.3716e+01     8.2816     2.0847    59.3819   997.4361  0.000e+00
     -0.501    23.5806    23.5863     96.199  93.478631     -0.712     6.1734     72.783    8.48202    8.46328 4.1586e+01     8.2774     2.0742    59.5389   997.4362  0.000e+00
     -0.500    23.5802    23.5859     96.199  93.478632     -0.711     6.1320     72.293    8.48209    8.46335 2.1973e+01     8.3897     2.0717    59.5759   997.4363  0.000e+00
     -0.503    23.5798    23.5854     96.200  93.478632     -0.715     6.0681     71.540    8.48216    8.46342 4.0411e+01     8.3388     2.0606    59.7417   997.4364  0.000e+00
     -0.535    23.5792    23.5849     96.201  93.478632     -0.761     6.0297     71.086    8.48225    8.46350 3.9914e+01     8.2583     2.0780    59.4811   997.4364  0.000e+00
     -0.562    23.5789    23.5845     96.265  93.539687     -0.800     6.0033     70.775    8.48231    8.46356 3.9055e+01     8.2541     2.0893    59.3138   997.4364  0.000e+00
     -0.572    23.5790    23.5846     96.265  93.539687     -0.814     5.9699     70.381    8.48229    8.46355 3.9759e+01     8.2964     2.0823    59.4175   997.4363  0.000e+00
     -0.572    23.5786    23.5843     96.203  93.478631     -0.814     5.9364     69.986    8.48235    8.46360 1.6527e+01     8.2859     2.0810    59.4367   997.4364  0.000e+00
     -0.558    23.5776    23.5833     96.267  93.539688     -0.794     5.9064     69.630    8.48250    8.46376 3.6128e+01     8.2498     2.0712    59.5833   997.4367  0.000e+00
     -0.551    23.5766    23.5823     96.269  93.539688     -0.784     5.8649     69.140    8.48266    8.46392 3.6855e+01     8.3431     2.0782    59.4782   997.4370  0.000e+00
     -0.569    23.5755    23.5811     96.272  93.539688     -0.809     5.8131     68.528    8.48284    8.46410 4.3997e+01     8.3834     2.0922    59.2709   997.4372  0.000e+00
     -0.586    23.5750    23.5807     96.461  93.722857     -0.834     5.7775     68.108    8.48291    8.46417 5.1498e+01     8.5318     2.1076    59.0429   997.4373  0.000e+00
     -0.571    23.5736    23.5793     96.212  93.478633     -0.812     5.7315     67.563    8.48314    8.46440 5.7815e+01     8.4872     2.1173    58.9007   997.4376  0.000e+00
     -0.550    23.5720    23.5777     96.121  93.387050     -0.783     5.7045     67.243    8.48340    8.46466 6.1717e+01     8.4894     2.0858    59.3656   997.4380  0.000e+00
     -0.530    23.5764    23.5820     96.207  93.478633     -0.754     5.7097     67.310    8.48270    8.46396 6.5867e+01     8.4470     2.0743    59.5374   997.4371  0.000e+00
     -0.532    23.5849    23.5906     96.002  93.295464     -0.756     5.9403     70.040    8.48135    8.46260 6.6290e+01     8.5296     2.0786    59.4722   997.4350  0.000e+00
     -0.546    23.5906    23.5963     96.116  93.417572     -0.776     6.4172     75.670    8.48044    8.46168 6.4271e+01     8.5042     2.0986    59.1761   997.4336  0.000e+00
     -0.585    23.5933    23.5989     96.079  93.387044     -0.833     6.9719     82.216    8.48001    8.46126 5.6518e+01     8.4660     2.0812    59.4337   997.4327  0.000e+00
     -0.619    23.5943    23.6000     96.171  93.478626     -0.881     7.4834     88.249    8.47984    8.46108 4.3967e+01     8.3282     2.0788    59.4693   997.4323  0.000e+00
     -0.636    23.5953    23.6010     96.169  93.478626     -0.905     7.9192     93.390    8.47968    8.46093 1.4276e+01     8.3240     2.0688    59.6188   997.4320  0.000e+00
     -0.627    23.5955    23.6012     96.075  93.387043     -0.892     8.2586     97.393    8.47966    8.46090 1.6876e+01     8.2795     2.0596    59.7565   997.4320  0.000e+00
     -0.621    23.5960    23.6017     96.168  93.478626     -0.883     8.4861    100.078    8.47957    8.46081 1.1755e+01     8.1523     2.0601    59.7491   997.4319  0.000e+00
     -0.605    23.5957    23.6013     96.075  93.387043     -0.861     8.5823    101.211    8.47963    8.46087 1.5334e+01     8.1799     2.0541    59.8380   997.4320  0.000e+00
     -0.589    23.5954    23.6011     96.075  93.387043     -0.837     8.5461    100.784    8.47967    8.46092 4.2922e+01     8.1417     2.0739    59.5433   997.4322  0.000e+00
     -0.546    23.5950    23.6006     96.233  93.539683     -0.776     8.4356     99.480    8.47974    8.46098 4.2745e+01     8.0717     2.0816    59.4278   997.4325  0.000e+00
     -0.550    23.5949    23.6005     96.170  93.478627     -0.783     8.3149     98.056    8.47975    8.46100 1.1136e+01     8.1078     2.0690    59.6159   997.4325  0.000e+00
     -0.602    23.5953    23.6010     96.075  93.387043     -0.856     8.2073     96.787    8.47969    8.46093 1.0416e+01     8.2032     2.0682    59.6277   997.4321  0.000e+00
     -0.604    23.5954    23.6011     96.075  93.387043     -0.859     8.1094     95.633    8.47967    8.46092 1.0159e+01     8.2350     2.0694    59.6099   997.4321  0.000e+00
     -0.603    23.5950    23.6006     96.170  93.478626     -0.858     8.0072     94.428    8.47974    8.46099 1.1651e+01     8.2201     2.0772    59.4930   997.4323  0.000e+00
     -0.614    23.5947    23.6004     96.171  93.478626     -0.873     7.9005     93.169    8.47978    8.46103 1.0572e+01     8.2095     2.0888    59.3212   997.4323  0.000e+00
     -0.629    23.5943    23.6000     96.171  93.478626     -0.895     7.8161     92.173    8.47984    8.46108 1.2122e+01     8.2668     2.0874    59.3419   997.4323  0.000e+00
     -0.629    23.5942    23.5999     96.172  93.478626     -0.895     7.7475     91.364    8.47985    8.46110 1.1616e+01     8.3600     2.0914    59.2827   997.4323  0.000e+00
     -0.630    23.5942    23.5998     96.172  93.478626     -0.897     7.6889     90.672    8.47987    8.46111 1.4779e+01     8.3070     2.0874    59.3419   997.4323  0.000e+00
     -0.627    23.5937    23.5994     96.173  93.478626     -0.892     7.6205     89.865    8.47994    8.46118 1.0521e+01     8.3770     2.0941    59.2427   997.4325  0.000e+00
     -0.629    23.5931    23.5988     96.080  93.387043     -0.895     7.5511     89.045    8.48004    8.46129 1.6672e+01     8.4194     2.0611    59.7343   997.4326  0.000e+00
     -0.627    23.5930    23.5987     96.174  93.478627     -0.892     7.4966     88.402    8.48005    8.46130 1.4316e+01     8.4512     2.0651    59.6736   997.4326  0.000e+00
     -0.633    23.5925    23.5981     96.112  93.417571     -0.900     7.4269     87.580    8.48014    8.46139 4.0933e+01     8.2837     2.0881    59.3316   997.4327  0.000e+00
     -0.634    23.5920    23.5977     96.176  93.478627     -0.901     7.3775     86.996    8.48021    8.46145 1.6945e+01     8.2562     2.0705    59.5937   997.4328  0.000e+00
     -0.619    23.5913    23.5970     95.989  93.295461     -0.881     7.3390     86.541    8.48033    8.46157 1.0852e+01     8.3452     2.0543    59.8350   997.4330  0.000e+00
     -0.599    23.5910    23.5967     96.178  93.478627     -0.851     7.2944     86.015    8.48036    8.46161 1.3463e+01     8.3431     2.0503    59.8957   997.4332  0.000e+00
     -0.554    23.5910    23.5967     96.178  93.478628     -0.787     7.2428     85.407    8.48036    8.46161 1.8072e+01     8.3431     2.0547    59.8291   997.4334  0.000e+00
     -0.483    23.5915    23.5972     96.177  93.478628     -0.687     7.2077     84.993    8.48029    8.46154 5.7498e+01     8.3176     2.0687    59.6203   997.4336  0.000e+00
     -0.417    23.5921    23.5978     96.176  93.478629     -0.594     7.2241     85.188    8.48019    8.46144 6.3379e+01     8.2180     2.1084    59.0310   997.4338  0.000e+00
     -0.363    23.5929    23.5986     95.986  93.295463     -0.517     7.2838     85.893    8.48007    8.46132 6.1844e+01     8.1968     2.1188    58.8785   997.4338  0.000e+00
     -0.310    23.5933    23.5989     96.236  93.539685     -0.440     7.3677     86.883    8.48001    8.46125 5.9837e+01     8.2837     2.0992    59.1672   997.4340  0.000e+00
     -0.254    23.5939    23.5996     96.078  93.387046     -0.361     7.4904     88.331    8.47991    8.46116 4.7616e+01     8.2498     2.0809    59.4382   997.4340  0.000e+00
     -0.210    23.5963    23.6020     96.168  93.478629     -0.298     7.6453     90.162    8.47953    8.46077 4.2618e+01     8.1629     2.0691    59.6144   997.4337  0.000e+00
     -0.172    23.5991    23.6048     96.162  93.478629     -0.245     7.8075     92.080    8.47907    8.46032 4.6859e+01     7.9869     2.0671    59.6440   997.4332  0.000e+00
     -0.116    23.6007    23.6063     96.159  93.478629     -0.165     7.9550     93.822    8.47883    8.46007 4.7171e+01     7.8958     2.0578    59.7832   997.4330  0.000e+00
     -0.090    23.6017    23.6074     96.157  93.478629     -0.128     8.0770     95.263    8.47866    8.45990 5.0760e+01     7.7919     2.0600    59.7506   997.4329  0.000e+00
     -0.099    23.6030    23.6086     96.060  93.387045     -0.140     8.1447     96.064    8.47847    8.45971 5.0678e+01     7.8407     2.0874    59.3419   997.4325  0.000e+00
     -0.114    23.6032    23.6089     96.154  93.478628     -0.162     8.1754     96.426    8.47842    8.45966 4.7879e+01     7.8301     2.1047    59.0858   997.4324  0.000e+00
     -0.122    23.6022    23.6078     96.062  93.387045     -0.173     8.1727     96.392    8.47859    8.45983 4.9101e+01     7.8513     2.2042    57.6348   997.4326  0.000e+00
     -0.120    23.6008    23.6065     96.159  93.478629     -0.170     8.1407     96.012    8.47880    8.46005 4.7257e+01     7.9509     2.1533    58.3721   997.4330  0.000e+00
     -0.104    23.5999    23.6056     96.003  93.325990     -0.148     8.0986     95.514    8.47895    8.46019 5.0493e+01     7.8873     2.0889    59.3197   997.4332  0.000e+00
     -0.083    23.5996    23.6053     96.161  93.478629     -0.118     8.0535     94.982    8.47900    8.46025 4.7868e+01     7.8958     2.0810    59.4367   997.4334  0.000e+00
     -0.072    23.5997    23.6053     96.067  93.387046     -0.103     8.0195     94.581    8.47899    8.46023 5.1451e+01     8.0081     2.0573    59.7906   997.4334  0.000e+00
     -0.078    23.6006    23.6062     96.065  93.387046     -0.111     7.9852     94.177    8.47885    8.46009 4.8619e+01     8.1799     2.0588    59.7684   997.4332  0.000e+00
     -0.088    23.6011    23.6068     96.158  93.478629     -0.125     7.9772     94.085    8.47876    8.46000 5.2800e+01     8.0527     2.0577    59.7847   997.4331  0.000e+00
     -0.095    23.6007    23.6063     96.159  93.478629     -0.136     7.9855     94.181    8.47883    8.46007 4.7117e+01     8.0548     2.0508    59.8883   997.4331  0.000e+00
     -0.090    23.5996    23.6053     96.161  93.478629     -0.128     7.9857     94.182    8.47900    8.46025 5.0551e+01     7.9530     2.0734    59.5507   997.4334  0.000e+00
     -0.089    23.5987    23.6044     96.069  93.387046     -0.126     7.9909     94.241    8.47915    8.46039 5.1521e+01     7.9191     2.0772    59.4930   997.4336  0.000e+00
     -0.077    23.5982    23.6038     96.164  93.478630     -0.109     7.9946     94.284    8.47923    8.46047 4.8397e+01     7.9276     2.0810    59.4367   997.4338  0.000e+00
     -0.056    23.5972    23.6028     96.166  93.478630     -0.079     8.0012     94.361    8.47939    8.46063 4.8220e+01     7.9636     2.0759    59.5137   997.4342  0.000e+00
     -0.033    23.5963    23.6020     96.230  93.539687     -0.047     8.0143     94.514    8.47953    8.46077 4.8519e+01     7.8237     2.0766    59.5033   997.4345  0.000e+00
     -0.016    23.5964    23.6020     96.073  93.387048     -0.023     8.0326     94.729    8.47952    8.46076 4.6955e+01     7.7940     2.0748    59.5300   997.4345  0.000e+00
     -0.023    23.5961    23.6018     96.168  93.478631     -0.033     8.0403     94.820    8.47956    8.46080 4.9598e+01     7.8195     2.1132    58.9599   997.4346  0.000e+00
     -0.038    23.5956    23.6012     96.169  93.478631     -0.054     8.0407     94.823    8.47964    8.46089 4.8876e+01     7.8068     2.1175    58.8978   997.4346  0.000e+00
     -0.039    23.5962    23.6019     96.074  93.387047     -0.056     8.0412     94.830    8.47954    8.46079 4.9530e+01     7.7898     2.0984    59.1791   997.4344  0.000e+00
     -0.018    23.5969    23.6026     96.072  93.387047     -0.026     8.0364     94.775    8.47943    8.46067 4.7496e+01     7.7644     2.0853    59.3730   997.4343  0.000e+00
      0.007    23.5970    23.6027     96.072  93.387048      0.010     8.0300     94.700    8.47942    8.46066 4.5776e+01     7.8704     2.0932    59.2561   997.4344  0.000e+00
      0.019    23.5979    23.6036     96.164  93.478631      0.027     8.0210     94.595    8.47927    8.46052 4.6719e+01     7.9636     2.1111    58.9910   997.4343  0.000e+00
      0.022    23.5984    23.6041     96.163  93.478631      0.032     8.0100     94.467    8.47919    8.46043 4.6516e+01     8.1375     2.1492    58.4328   997.4342  0.000e+00
      0.017    23.5983    23.6039     96.101  93.417575      0.024     8.0032     94.386    8.47922    8.46046 4.7149e+01     8.1290     2.2592    56.8471   997.4342  0.000e+00
      0.008    23.5977    23.6034     96.228  93.539687      0.011     8.0013     94.363    8.47930    8.46054 4.7398e+01     8.0781     2.2748    56.6265   997.4343  0.000e+00
      0.029    23.5972    23.6028     96.166  93.478631      0.041     8.0046     94.401    8.47939    8.46063 4.5037e+01     7.9530     2.1427    58.5276   997.4345  0.000e+00
      0.098    23.5966    23.6022     96.167  93.478632      0.139     8.0050     94.404    8.47948    8.46073 4.0625e+01     7.9212     2.0824    59.4160   997.4350  0.000e+00
      0.186    23.5959    23.6015     96.231  93.539689      0.264     8.0051     94.404    8.47960    8.46084 3.8354e+01     7.9509     2.0727    59.5611   997.4356  0.000e+00
      0.252    23.5959    23.6015     96.168  93.478633      0.358     8.0020     94.367    8.47960    8.46084 3.6864e+01     7.9975     2.0545    59.8320   997.4358  0.000e+00
      0.305    23.5990    23.6046     96.068  93.387050      0.433     8.0006     94.357    8.47910    8.46035 3.5180e+01     8.0527     2.0664    59.6544   997.4353  0.000e+00
      0.372    23.6042    23.6099     96.152  93.478632      0.528     7.9951     94.301    8.47827    8.45950 3.4093e+01     8.1057     2.0641    59.6884   997.4343  0.000e+00
      0.429    23.6078    23.6134     96.145  93.478631      0.610     8.0023     94.392    8.47770    8.45894 3.3123e+01     8.0781     2.0737    59.5463   997.4337  0.000e+00
      0.478    23.6095    23.6151     96.141  93.478631      0.680     8.0046     94.423    8.47743    8.45867 3.1850e+01     8.1523     2.0658    59.6632   997.4335  0.000e+00
      0.528    23.6093    23.6150     96.142  93.478632      0.750     8.0104     94.491    8.47746    8.45869 3.1279e+01     8.1502     2.0782    59.4782   997.4338  0.000e+00
      0.585    23.6087    23.6143     96.143  93.478633      0.832     8.0161     94.557    8.47756    8.45879 2.9680e+01     8.1120     2.0893    59.3138   997.4342  0.000e+00
      0.659    23.6078    23.6134     96.051  93.387050      0.938     8.0052     94.427    8.47770    8.45894 2.7886e+01     8.0590     2.0898    59.3064   997.4347  0.000e+00
      0.736    23.6065    23.6122     96.147  93.478634      1.047     7.9974     94.332    8.47790    8.45913 2.6588e+01     8.0484     2.0842    59.3893   997.4354  0.000e+00
      0.812    23.6057    23.6114     96.149  93.478635      1.155     7.9930     94.279    8.47802    8.45926 2.6088e+01     8.1671     2.0978    59.1880   997.4359  0.000e+00
      0.869    23.6062    23.6118     96.148  93.478636      1.236     7.9900     94.244    8.47795    8.45919 2.5473e+01     8.2371     2.0992    59.1672   997.4361  0.000e+00
      0.898    23.6071    23.6127     96.146  93.478636      1.277     7.9839     94.174    8.47781    8.45905 2.5345e+01     8.2774     2.1144    58.9437   997.4360  0.000e+00
      0.935    23.6079    23.6135     96.145  93.478636      1.330     7.9895     94.241    8.47768    8.45892 2.4204e+01     8.2710     2.1002    59.1524   997.4360  0.000e+00
      0.996    23.6087    23.6143     96.143  93.478636      1.416     7.9960     94.319    8.47756    8.45879 2.3787e+01     8.2307     2.1050    59.0814   997.4360  0.000e+00
      1.059    23.6085    23.6142     96.143  93.478637      1.507     8.0098     94.482    8.47758    8.45882 2.2401e+01     8.1671     2.0850    59.3775   997.4364  0.000e+00
      1.119    23.6072    23.6129     96.146  93.478638      1.591     8.0216     94.618    8.47778    8.45902 2.1893e+01     8.1502     2.0674    59.6396   997.4369  0.000e+00
      1.191    23.6058    23.6115     96.055  93.387055      1.694     8.0247     94.653    8.47801    8.45925 2.0570e+01     8.1989     2.0742    59.5389   997.4376  0.000e+00
      1.258    23.6036    23.6093     96.059  93.387057      1.790     8.0301     94.713    8.47837    8.45961 2.0081e+01     8.1163     2.0727    59.5611   997.4384  0.000e+00
      1.312    23.6020    23.6077     96.062  93.387058      1.866     8.0301     94.709    8.47862    8.45986 1.9766e+01     8.0929     2.0641    59.6884   997.4390  0.000e+00
      1.369    23.6012    23.6069     96.064  93.387058      1.947     8.0322     94.734    8.47875    8.45999 1.8747e+01     8.0421     2.0847    59.3819   997.4395  0.000e+00
      1.422    23.6013    23.6069     96.063  93.387059      2.022     8.0341     94.755    8.47874    8.45998 1.8576e+01     8.0548     2.0782    59.4782   997.4397  0.000e+00
      1.480    23.6019    23.6076     96.156  93.478642      2.105     8.0320     94.732    8.47863    8.45988 1.7875e+01     8.1523     2.0834    59.4012   997.4398  0.000e+00
      1.526    23.6019    23.6076     96.156  93.478643      2.171     8.0351     94.768    8.47863    8.45988 1.7887e+01     8.2668     2.0837    59.3967   997.4400  0.000e+00
      1.568    23.6020    23.6077     96.219  93.539699      2.230     8.0329     94.743    8.47862    8.45986 1.7247e+01     8.3113     2.1028    59.1139   997.4402  0.000e+00
      1.606    23.6019    23.6076     96.156  93.478644      2.285     8.0256     94.657    8.47863    8.45988 1.7211e+01     8.4766     2.0965    59.2072   997.4404  0.000e+00
      1.648    23.6015    23.6071     96.157  93.478644      2.344     8.0121     94.497    8.47870    8.45995 1.6497e+01     8.4788     2.1080    59.0369   997.4407  0.000e+00
      1.710    23.6007    23.6064     96.159  93.478645      2.432     7.9949     94.292    8.47882    8.46006 1.6112e+01     8.4639     2.1141    58.9481   997.4411  0.000e+00
      1.775    23.6007    23.6064     96.159  93.478645      2.524     7.9733     94.038    8.47882    8.46006 1.5511e+01     8.5508     2.1058    59.0695   997.4414  0.000e+00
      1.827    23.6011    23.6068     96.158  93.478646      2.599     7.9560     93.834    8.47876    8.46000 1.5422e+01     8.5657     2.0972    59.1968   997.4416  0.000e+00
      1.891    23.6012    23.6069     96.064  93.387063      2.690     7.9417     93.666    8.47875    8.45999 1.4748e+01     8.6017     2.0882    59.3301   997.4418  0.000e+00
      1.950    23.6011    23.6068     96.158  93.478647      2.774     7.9387     93.630    8.47876    8.46000 1.4107e+01     8.6208     2.0974    59.1939   997.4421  0.000e+00
      2.018    23.5999    23.6055     96.066  93.387064      2.871     7.9457     93.711    8.47896    8.46020 1.3750e+01     8.7098     2.0971    59.1983   997.4427  0.000e+00
      2.099    23.5999    23.6055     96.098  93.417593      2.985     7.9550     93.820    8.47896    8.46020 1.3304e+01     8.7119     2.0768    59.5004   997.4430  0.000e+00
      2.172    23.6010    23.6067     96.158  93.478649      3.090     7.9683     93.980    8.47878    8.46002 1.3170e+01     8.5084     2.0718    59.5744   997.4431  0.000e+00
      2.224    23.6017    23.6074     96.157  93.478649      3.163     7.9746     94.055    8.47866    8.45990 1.2804e+01     8.5848     2.0770    59.4959   997.4432  0.000e+00
      2.285    23.6017    23.6074     96.157  93.478650      3.251     7.9819     94.141    8.47866    8.45990 1.2346e+01     8.6865     2.0649    59.6766   997.4434  0.000e+00
      2.352    23.6018    23.6075     96.157  93.478650      3.346     7.9946     94.291    8.47865    8.45989 1.2022e+01     8.7586     2.0635    59.6973   997.4437  0.000e+00
      2.411    23.6013    23.6069     96.064  93.387067      3.429     8.0081     94.450    8.47874    8.45998 1.1793e+01     8.7268     2.0780    59.4811   997.4441  0.000e+00
      2.451    23.6010    23.6067     96.158  93.478651      3.487     8.0210     94.601    8.47878    8.46002 1.1494e+01     8.8540     2.0765    59.5048   997.4444  0.000e+00
      2.503    23.6006    23.6062     96.065  93.387068      3.560     8.0288     94.692    8.47885    8.46009 1.1327e+01     8.9006     2.0925    59.2664   997.4447  0.000e+00
      2.559    23.6007    23.6064     96.159  93.478652      3.640     8.0410     94.836    8.47882    8.46006 1.0839e+01     8.9769     2.0774    59.4900   997.4449  0.000e+00
      2.602    23.6003    23.6060     96.160  93.478653      3.701     8.0526     94.972    8.47889    8.46013 1.0862e+01     9.0766     2.0886    59.3242   997.4452  0.000e+00
      2.637    23.5999    23.6056     96.160  93.478653      3.751     8.0543     94.992    8.47895    8.46019 1.0635e+01     9.1508     2.0842    59.3893   997.4454  0.000e+00
      2.695    23.6001    23.6058     96.160  93.478654      3.834     8.0508     94.950    8.47892    8.46016 1.0255e+01     9.0914     2.1109    58.9940   997.4457  0.000e+00
      2.756    23.6008    23.6065     96.221  93.539710      3.920     8.0403     94.828    8.47880    8.46004 9.9537e+00     9.1126     2.1072    59.0488   997.4458  0.000e+00
      2.807    23.6015    23.6071     96.157  93.478654      3.993     8.0226     94.620    8.47870    8.45995 1.0075e+01     9.0617     2.1018    59.1287   997.4458  0.000e+00
      2.846    23.6018    23.6075     96.062  93.387071      4.048     7.9989     94.342    8.47865    8.45989 9.7215e+00     8.9049     2.0929    59.2605   997.4459  0.000e+00
      2.882    23.6020    23.6077     96.062  93.387071      4.099     7.9738     94.046    8.47862    8.45986 9.5778e+00     9.1338     2.0934    59.2531   997.4460  0.000e+00
      2.905    23.6023    23.6079     96.156  93.478655      4.132     7.9683     93.981    8.47858    8.45982 9.6372e+00     9.2080     2.0939    59.2457   997.4461  0.000e+00
      2.915    23.6027    23.6084     96.218  93.539711      4.146     7.9649     93.942    8.47851    8.45975 9.5405e+00     9.3882     2.0744    59.5359   997.4460  0.000e+00
      2.930    23.6032    23.6089     96.154  93.478655      4.168     7.9734     94.044    8.47842    8.45966 9.5013e+00     9.4136     2.0605    59.7432   997.4459  0.000e+00
      2.961    23.6027    23.6084     96.155  93.478655      4.212     7.9912     94.252    8.47851    8.45975 9.0736e+00     9.4242     2.0675    59.6381   997.4462  0.000e+00
      2.992    23.6025    23.6082     96.218  93.539711      4.256     8.0131     94.511    8.47853    8.45977 9.1866e+00     9.2292     2.0752    59.5241   997.4464  0.000e+00
      3.003    23.6023    23.6080     96.218  93.539711      4.271     8.0368     94.789    8.47856    8.45980 9.1740e+00     9.2101     2.0643    59.6855   997.4465  0.000e+00
      3.017    23.6016    23.6073     96.220  93.539712      4.291     8.0546     94.999    8.47868    8.45992 9.2669e+00     9.1508     2.0681    59.6292   997.4467  0.000e+00
      3.029    23.6013    23.6069     96.221  93.539712      4.309     8.0573     95.029    8.47873    8.45997 8.9559e+00     9.2525     2.0616    59.7269   997.4469  0.000e+00
      3.047    23.6015    23.6072     96.157  93.478656      4.334     8.0523     94.971    8.47869    8.45993 8.8033e+00     9.1932     2.0621    59.7180   997.4469  0.000e+00
      3.067    23.6015    23.6072     96.063  93.387073      4.362     8.0390     94.814    8.47869    8.45993 8.9190e+00     9.2122     2.0657    59.6647   997.4469  0.000e+00
      3.077    23.6017    23.6074     96.157  93.478656      4.376     8.0168     94.552    8.47866    8.45990 8.9518e+00     9.3204     2.0723    59.5670   997.4470  0.000e+00
      3.075    23.6018    23.6075     96.157  93.478656      4.374     7.9979     94.330    8.47865    8.45989 8.8255e+00     9.2992     2.0596    59.7565   997.4469  0.000e+00
      3.075    23.6016    23.6073     96.157  93.478656      4.374     7.9856     94.185    8.47868    8.45992 8.9477e+00     9.3182     2.0551    59.8232   997.4470  0.000e+00
      3.072    23.6014    23.6070     96.158  93.478657      4.370     7.9913     94.252    8.47872    8.45996 8.9047e+00     9.3585     2.0543    59.8350   997.4470  0.000e+00
      3.073    23.6014    23.6070     96.158  93.478657      4.371     7.9975     94.325    8.47872    8.45996 8.7892e+00     9.3585     2.0763    59.5078   997.4470  0.000e+00
      3.077    23.6014    23.6070     95.969  93.295490      4.376     8.0001     94.355    8.47872    8.45996 8.6692e+00     9.3161     2.0782    59.4782   997.4470  0.000e+00
      3.073    23.6015    23.6071     96.157  93.478657      4.371     7.9938     94.281    8.47870    8.45995 8.9313e+00     9.3564     2.0642    59.6869   997.4470  0.000e+00
      3.071    23.6014    23.6070     96.158  93.478657      4.368     7.9913     94.251    8.47872    8.45996 8.7650e+00     9.3543     2.0554    59.8187   997.4470  0.000e+00
      3.072    23.6011    23.6068     96.158  93.478657      4.370     7.9844     94.169    8.47876    8.46000 8.8194e+00     9.4878     2.0588    59.7684   997.4471  0.000e+00
      3.075    23.6005    23.6061     96.159  93.478657      4.374     7.9790     94.104    8.47886    8.46010 8.8884e+00     9.6638     2.0653    59.6706   997.4473  0.000e+00
      3.081    23.6002    23.6059     96.160  93.478657      4.382     7.9767     94.077    8.47890    8.46015 8.8843e+00     9.6511     2.0489    59.9164   997.4473  0.000e+00
      3.082    23.5999    23.6055     96.161  93.478657      4.384     7.9784     94.097    8.47896    8.46020 8.8823e+00     9.6299     2.0681    59.6292   997.4474  0.000e+00
      3.090    23.5995    23.6052     96.067  93.387074      4.395     7.9837     94.158    8.47902    8.46026 8.8154e+00     9.6786     2.0633    59.7003   997.4475  0.000e+00
      3.094    23.5992    23.6049     96.162  93.478657      4.401     7.9970     94.314    8.47906    8.46030 8.7731e+00     9.8101     2.0629    59.7062   997.4476  0.000e+00
      3.096    23.5992    23.6049     96.162  93.478657      4.404     8.0056     94.416    8.47906    8.46030 8.7430e+00     9.7019     2.0695    59.6085   997.4477  0.000e+00
      3.114    23.5993    23.6050     96.067  93.387074      4.429     8.0119     94.491    8.47905    8.46029 8.5351e+00     9.7677     2.0541    59.8380   997.4477  0.000e+00
      3.169    23.5995    23.6052     96.161  93.478658      4.507     8.0098     94.466    8.47902    8.46026 8.5175e+00     9.6935     2.0505    59.8927   997.4479  0.000e+00
      3.217    23.5996    23.6053     96.161  93.478658      4.576     8.0152     94.530    8.47900    8.46025 8.2695e+00     9.5875     2.0714    59.5803   997.4481  0.000e+00
      3.239    23.5992    23.6049     96.225  93.539714      4.607     8.0231     94.622    8.47906    8.46030 8.0766e+00     9.5769     2.0731    59.5552   997.4483  0.000e+00
      3.270    23.5994    23.6051     95.973  93.295493      4.651     8.0206     94.593    8.47904    8.46028 8.0692e+00     9.5641     2.0726    59.5626   997.4483  0.000e+00
      3.298    23.5994    23.6051     96.161  93.478659      4.692     8.0205     94.592    8.47903    8.46027 8.0360e+00     9.5938     2.0773    59.4915   997.4485  0.000e+00
      3.309    23.6002    23.6059     96.066  93.387076      4.707     8.0175     94.559    8.47891    8.46015 8.0415e+00     9.4391     2.0910    59.2886   997.4483  0.000e+00
      3.324    23.6001    23.6058     96.160  93.478659      4.727     8.0169     94.552    8.47892    8.46016 7.9846e+00     9.3076     2.0839    59.3938   997.4484  0.000e+00
      3.333    23.6001    23.6058     96.066  93.387076      4.740     8.0144     94.522    8.47892    8.46016 7.8001e+00     9.3352     2.0931    59.2576   997.4485  0.000e+00
      3.330    23.6002    23.6059     96.160  93.478659      4.737     8.0066     94.430    8.47890    8.46015 7.9754e+00     9.2822     2.0825    59.4145   997.4485  0.000e+00
      3.328    23.6008    23.6065     96.221  93.539715      4.734     8.0007     94.361    8.47880    8.46004 7.9481e+00     9.1571     2.0840    59.3923   997.4483  0.000e+00
      3.330    23.6008    23.6065     96.159  93.478659      4.737     7.9968     94.315    8.47880    8.46005 8.0047e+00     8.9897     2.0761    59.5107   997.4483  0.000e+00
      3.335    23.6003    23.6060     96.160  93.478659      4.743     8.0031     94.389    8.47889    8.46013 7.8864e+00     8.9367     2.0751    59.5255   997.4484  0.000e+00
      3.338    23.6000    23.6057     96.066  93.387076      4.748     8.0063     94.426    8.47893    8.46018 7.9462e+00     9.0342     2.0727    59.5611   997.4485  0.000e+00
      3.346    23.5998    23.6054     96.161  93.478659      4.759     7.9986     94.334    8.47897    8.46022 7.8055e+00     9.0893     2.0597    59.7550   997.4486  0.000e+00
      3.374    23.5997    23.6053     96.161  93.478660      4.799     8.0023     94.378    8.47899    8.46023 7.7325e+00     9.3098     2.0762    59.5093   997.4488  0.000e+00
      3.431    23.5996    23.6053     96.161  93.478660      4.881     8.0055     94.415    8.47900    8.46025 7.5591e+00     9.1995     2.0761    59.5107   997.4491  0.000e+00
      3.480    23.5985    23.6042     96.069  93.387078      4.949     7.9928     94.264    8.47917    8.46042 7.3743e+00     9.0405     2.0742    59.5389   997.4495  0.000e+00
      3.530    23.5982    23.6038     96.070  93.387078      5.021     7.9862     94.185    8.47923    8.46047 7.0975e+00     8.9960     2.0838    59.3952   997.4498  0.000e+00
      3.586    23.5982    23.6038     96.164  93.478662      5.101     7.9807     94.121    8.47923    8.46047 7.0134e+00     8.9600     2.0711    59.5848   997.4501  0.000e+00
      3.634    23.5962    23.6019     95.979  93.295497      5.168     7.9841     94.157    8.47955    8.46079 6.9590e+00     9.0787     2.0559    59.8113   997.4507  0.000e+00
      3.679    23.5891    23.5948     96.088  93.387082      5.232     7.9964     94.289    8.48068    8.46193 6.7625e+00     9.1190     2.0629    59.7062   997.4527  0.000e+00
      3.741    23.5843    23.5899     96.191  93.478668      5.321     8.0134     94.482    8.48144    8.46269 6.6184e+00     9.0257     2.0778    59.4841   997.4542  0.000e+00
      3.817    23.5823    23.5880     96.101  93.387085      5.429     8.0242     94.605    8.48176    8.46301 6.2944e+00     8.9981     2.0741    59.5404   997.4549  0.000e+00
      3.887    23.5750    23.5806     95.362  92.654436      5.529     8.0297     94.657    8.48295    8.46421 6.1830e+00     9.0427     2.0681    59.6292   997.4568  0.000e+00
      3.957    23.4715    23.4771     93.172  90.334579      5.628     8.0484     94.692    8.49953    8.48086 6.0401e+00     9.0872     2.0668    59.6484   997.4814  0.000e+00
      4.035    23.1571    23.1626     92.260  88.869614      5.739     8.0794     94.495    8.55016    8.53167 5.7235e+00     9.1783     2.0739    59.5433   997.5569  0.000e+00
      4.095    22.7347    22.7402     92.213  88.045688      5.825     8.1013     93.993    8.61898    8.60077 5.7392e+00     9.1550     2.0745    59.5344   997.6570  0.000e+00
      4.148    22.3315    22.3368     92.226  87.313343      5.900     8.0749     92.968    8.68563    8.66769 5.4546e+00     9.2377     2.0737    59.5463   997.7509  0.000e+00
      4.221    21.9619    21.9671     92.237  86.642049      6.004     7.9597     90.993    8.74754    8.72985 5.4135e+00     9.4030     2.0849    59.3790   997.8356  0.000e+00
      4.290    21.5996    21.6047     91.546  85.329933      6.101     7.7659     88.159    8.80901    8.79158 5.1521e+00     9.5069     2.1190    58.8755   997.9171  0.000e+00
      4.336    21.1836    21.1887     91.843  84.841803      6.167     7.5218     84.700    8.88051    8.86338 5.1686e+00     9.9987     2.1117    58.9822   998.0093  0.000e+00
      4.377    20.8019    20.8069     92.142  84.414703      6.226     7.2357     80.872    8.94705    8.93020 5.1983e+00    10.6941     2.0991    59.1687   998.0922  0.000e+00
      4.421    20.5252    20.5301     92.535  84.262207      6.289     6.9387     77.133    8.99586    8.97921 5.0216e+00    11.1562     2.0882    59.3301   998.1516  0.000e+00
      4.481    20.3486    20.3535     92.828  84.201228      6.373     6.6473     73.636    9.02725    9.01073 4.7900e+00    11.4424     2.0983    59.1806   998.1892  0.000e+00
      4.542    20.2366    20.2415     92.687  83.865606      6.461     6.4491     71.283    9.04727    9.03084 4.6431e+00    11.4318     2.0961    59.2131   998.2129  0.000e+00
      4.595    20.1033    20.1081     92.487  83.438457      6.536     6.3545     70.051    9.07120    9.05487 4.5881e+00    11.6522     2.1234    58.8104   998.2408  0.000e+00
      4.662    19.9520    19.9568     92.527  83.194396      6.631     6.3484     69.774    9.09850    9.08228 4.2882e+00    12.0614     2.1091    59.0206   998.2724  0.000e+00
      4.744    19.8070    19.8117     92.282  82.706239      6.748     6.4039     70.181    9.12482    9.10871 4.1690e+00    12.6528     2.1017    59.1302   998.3024  0.000e+00
      4.822    19.6322    19.6369     91.721  81.882482      6.859     6.5162     71.163    9.15671    9.14073 3.9777e+00    13.4817     2.1427    58.5276   998.3381  0.000e+00
      4.883    19.3589    19.3636     91.804  81.455410      6.945     6.6411     72.132    9.20697    9.19119 3.9055e+00    14.2322     2.2679    56.7242   998.3933  0.000e+00
      4.932    19.0610    19.0655     91.871  80.967334      7.015     6.7392     72.759    9.26234    9.24678 3.7709e+00    14.7261     2.3043    56.2104   998.4526  0.000e+00
      5.000    18.8188    18.8233     91.927  80.570780      7.112     6.8232     73.307    9.30778    9.29241 3.6053e+00    15.4914     2.4222    54.5773   998.5001  0.000e+00
      5.075    18.6079    18.6124     91.812  80.082701      7.218     6.9224     74.055    9.34769    9.33247 3.4155e+00    17.8763     2.6474    51.5894   998.5411  0.000e+00
      5.140    18.3720    18.3764     91.467  79.350583      7.311     7.1077     75.673    9.39269    9.37765 3.2979e+00    21.9422     2.7196    50.6669   998.5861  0.000e+00
      5.206    18.0711    18.0755     91.328  78.679518      7.404     7.3963     78.262    9.45067    9.43585 3.0647e+00    27.1275     2.8303    49.2840   998.6427  0.000e+00
      5.272    17.7532    17.7574     91.436  78.191510      7.498     7.6938     80.880    9.51263    9.49804 2.9140e+00    30.8161     2.9207    48.1824   998.7015  0.000e+00
      5.332    17.4629    17.4670     91.666  77.856029      7.584     7.9560     83.136    9.56984    9.55546 2.7587e+00    33.4893     2.9728    47.5591   998.7543  0.000e+00
      5.384    17.2175    17.2216     91.910  77.612054      7.658     8.1313     84.536    9.61868    9.60447 2.5915e+00    36.3724     2.9856    47.4066   998.7982  0.000e+00
      5.444    17.0056    17.0097     92.084  77.368074      7.744     8.1774     84.641    9.66122    9.64716 2.4249e+00    37.0741     3.0639    46.4886   998.8356  0.000e+00
      5.516    16.8362    16.8402     91.946  76.941064      7.845     8.0526     83.055    9.69549    9.68154 2.2503e+00    37.4154     3.0523    46.6233   998.8652  0.000e+00
      5.583    16.6293    16.6333     92.037  76.636084      7.940     7.7387     79.472    9.73761    9.72381 2.1554e+00    37.4641     3.0931    46.1495   998.9008  0.000e+00
      5.637    16.3491    16.3531     92.440  76.453137      8.017     7.2531     74.047    9.79520    9.78158 2.0261e+00    36.8811     3.0720    46.3938   998.9483  0.000e+00
      5.691    16.0062    16.0100     92.915  76.209201      8.095     6.6319     67.216    9.86652    9.85313 1.9921e+00    36.3130     3.0363    46.8099   999.0051  0.000e+00
      5.749    15.7082    15.7119     93.184  75.873751      8.176     5.9415     59.839    9.92926    9.91606 1.8803e+00    35.5477     3.0549    46.5923   999.0534  0.000e+00
      5.839    15.4357    15.4394     93.208  75.385794      8.305     5.1246     51.311    9.98727    9.97423 1.6818e+00    35.4163     3.0912    46.1718   999.0967  0.000e+00
      5.935    15.0938    15.0975     93.091  74.653861      8.442     4.2061     41.806   10.06091   10.04807 1.5758e+00    37.4938     3.2004    44.9280   999.1497  0.000e+00
      6.023    14.6519    14.6554     93.398  74.074473      8.567     3.1845     31.351   10.15755   10.14497 1.4597e+00    39.7790     3.0913    46.1703   999.2162  0.000e+00
      6.098    14.2285    14.2320     93.901  73.678088      8.673     2.1031     20.514   10.25170   10.23934 1.3740e+00    41.0065     2.8076    49.5639   999.2778  0.000e+00
      6.169    13.8828    13.8861     94.187  73.251192      8.775     1.0933     10.584   10.32976   10.31758 1.2632e+00    40.2793     2.4529    54.1597   999.3265  0.000e+00
      6.242    13.6200    13.6233     94.315  72.854783      8.878     0.2109      2.030   10.38980   10.37775 1.1899e+00    37.8224     2.1998    57.6984   999.3626  0.000e+00
      6.318    13.4031    13.4063     94.530  72.610856      8.986    -0.4948     -4.740   10.43984   10.42788 1.1236e+00    35.1556     2.1140    58.9496   999.3918  0.000e+00
      6.389    13.2141    13.2173     94.678  72.366924      9.088    -0.9776     -9.325   10.48377   10.47189 1.1108e+00    31.9587     2.1404    58.5617   999.4169  0.000e+00
      6.445    13.0416    13.0447     94.346  71.787533      9.167    -1.2309    -11.696   10.52419   10.51239 1.0633e+00    28.5500     2.1170    58.9052   999.4391  0.000e+00
      6.499    12.8936    12.8967     94.192  71.391123      9.244    -1.2884    -12.202   10.55909   10.54735 1.0177e+00    25.0500     2.0655    59.6677   999.4580  0.000e+00
      6.558    12.7802    12.7833     94.111  71.116693      9.328    -1.1853    -11.197   10.58596   10.57426 9.8583e-01    21.6709     2.0647    59.6795   999.4724  0.000e+00
      6.601    12.6961    12.6991     94.241  71.055722      9.389    -1.0042     -9.468   10.60597   10.59430 9.8854e-01    19.1842     2.0322    60.1667   999.4830  0.000e+00
      6.647    12.6305    12.6335     94.081  70.811780      9.455    -0.7882     -7.421   10.62163   10.60999 9.4404e-01    17.0177     2.0411    60.0334   999.4912  0.000e+00
      6.706    12.5568    12.5599     94.022  70.628830      9.538    -0.5806     -5.457   10.63925   10.62763 9.3565e-01    15.0398     2.0705    59.5937   999.5004  0.000e+00
      6.774    12.4860    12.4890     94.118  70.567859      9.634    -0.3802     -3.568   10.65625   10.64466 8.7189e-01    13.2909     2.0397    60.0541   999.5093  0.000e+00
      6.857    12.4134    12.4164     94.056  70.384911      9.753    -0.2048     -1.919   10.67372   10.66215 8.2184e-01    11.9808     1.9995    60.6612   999.5184  0.000e+00
      6.929    12.3383    12.3412     93.592  69.897032      9.855    -0.0551     -0.515   10.69187   10.68033 8.1883e-01    11.0163     2.0258    60.2629   999.5275  0.000e+00
      6.989    12.2577    12.2606     93.672  69.805571      9.941     0.0836      0.781   10.71139   10.69987 7.7680e-01    10.1641     2.0386    60.0704   999.5373  0.000e+00
      7.054    12.1883    12.1912     93.642  69.653122     10.033     0.1951      1.819   10.72823   10.71673 7.5590e-01     9.2398     2.0258    60.2629   999.5457  0.000e+00
      7.125    12.1270    12.1299     93.468  69.409195     10.135     0.2742      2.553   10.74317   10.73170 7.1940e-01     8.6886     2.0093    60.5116   999.5531  0.000e+00
      7.187    12.0589    12.0618     93.187  69.073796     10.222     0.3322      3.088   10.75980   10.74835 7.1924e-01     8.3410     1.9501    61.4148   999.5611  0.000e+00
      7.241    11.9780    11.9809     93.309  69.012831     10.299     0.3620      3.358   10.77961   10.76818 6.9382e-01     8.1629     1.9496    61.4222   999.5707  0.000e+00
      7.300    11.9059    11.9087     93.243  68.829896     10.383     0.3708      3.434   10.79732   10.78592 6.7377e-01     7.9467     1.9603    61.2579   999.5791  0.000e+00
      7.359    11.8516    11.8544     93.629  69.012860     10.467     0.3799      3.515   10.81069   10.79930 6.3757e-01     7.7495     1.9707    61.0995   999.5856  0.000e+00
      7.410    11.8098    11.8127     93.818  69.073853     10.539     0.3782      3.495   10.82098   10.80960 6.2800e-01     7.4739     2.0097    60.5057   999.5906  0.000e+00
      7.460    11.7568    11.7596     93.705  68.890914     10.611     0.3793      3.501   10.83411   10.82274 6.0401e-01     7.1623     2.0303    60.1948   999.5967  0.000e+00
      7.511    11.6960    11.6988     93.652  68.738470     10.683     0.3718      3.427   10.84917   10.83782 5.8830e-01     7.2874     2.0724    59.5655   999.6037  0.000e+00
      7.570    11.6306    11.6334     94.069  68.921435     10.767     0.3672      3.379   10.86540   10.85407 5.8280e-01     7.0669     2.1644    58.2107   999.6113  0.000e+00
      7.626    11.5496    11.5524     94.153  68.829978     10.847     0.3509      3.224   10.88558   10.87427 5.5938e-01     6.9206     2.1543    58.3573   999.6204  0.000e+00
      7.674    11.4689    11.4716     94.152  68.677539     10.914     0.3365      3.086   10.90577   10.89447 5.5111e-01     6.9270     2.2011    57.6792   999.6293  0.000e+00
      7.737    11.3845    11.3872     94.580  68.830016     11.005     0.3229      2.955   10.92692   10.91565 5.0066e-01     6.8698     2.2270    57.3076   999.6388  0.000e+00
      7.798    11.2983    11.3011     94.804  68.830036     11.091     0.2987      2.729   10.94860   10.93734 5.0608e-01     6.9440     2.3221    55.9602   999.6483  0.000e+00
      7.843    11.2144    11.2171     95.150  68.921530     11.155     0.2782      2.536   10.96978   10.95854 4.9156e-01     6.9758     2.3721    55.2658   999.6574  0.000e+00
      7.892    11.1550    11.1577     95.307  68.921544     11.225     0.2566      2.336   10.98483   10.97360 4.6579e-01     7.1623     2.3764    55.2066   999.6638  0.000e+00
      7.957    11.1131    11.1158     95.629  69.074013     11.318     0.2411      2.192   10.99545   10.98423 4.5410e-01     7.3107     2.3265    55.8995   999.6686  0.000e+00
      8.008    11.0857    11.0883     95.828  69.165496     11.389     0.2247      2.043   11.00242   10.99121 4.4087e-01     7.5948     2.2817    56.5288   999.6717  0.000e+00
      8.055    11.0593    11.0620     95.687  69.013042     11.457     0.2134      1.938   11.00914   10.99793 4.2656e-01     7.9891     2.2950    56.3407   999.6745  0.000e+00
      8.105    11.0292    11.0319     95.640  68.921573     11.529     0.2072      1.881   11.01680   11.00560 4.0951e-01     8.3643     2.3469    55.6152   999.6778  0.000e+00
      8.165    10.9917    10.9944     96.078  69.165518     11.613     0.2009      1.822   11.02636   11.01516 3.9686e-01     8.4851     2.3815    55.1355   999.6821  0.000e+00
      8.202    10.9399    10.9425     96.217  69.165530     11.666     0.2003      1.815   11.03960   11.02842 3.8911e-01     8.6950     2.3779    55.1858   999.6875  0.000e+00
      8.239    10.8788    10.8814     96.508  69.257021     11.719     0.1960      1.773   11.05525   11.04408 3.7978e-01     9.1359     2.4511    54.1849   999.6939  0.000e+00
      8.263    10.8288    10.8314     96.515  69.165556     11.752     0.1908      1.724   11.06809   11.05692 3.7305e-01     9.8715     2.5445    52.9338   999.6990  0.000e+00
      8.283    10.7975    10.8001     96.387  69.013102     11.782     0.1948      1.759   11.07615   11.06499 3.7494e-01    10.6580     2.6306    51.8070   999.7021  0.000e+00
      8.315    10.7740    10.7765     96.663  69.165568     11.827     0.1965      1.773   11.08219   11.07104 3.6218e-01    11.3343     2.6728    51.2636   999.7047  0.000e+00
      8.379    10.7543    10.7569     96.716  69.165573     11.918     0.1965      1.772   11.08726   11.07611 3.4747e-01    11.7540     2.7837    49.8615   999.7069  0.000e+00
      8.434    10.7267    10.7293     96.663  69.074103     11.996     0.1874      1.689   11.09439   11.08323 3.2767e-01    11.6586     2.8709    48.7865   999.7099  0.000e+00
      8.497    10.6906    10.6931     96.889  69.165588     12.085     0.1884      1.696   11.10371   11.09256 3.2737e-01    11.4699     2.9496    47.8360   999.7138  0.000e+00
      8.558    10.6414    10.6440     97.151  69.257077     12.172     0.1799      1.618   11.11641   11.10527 3.0950e-01    11.9384     3.0462    46.6944   999.7189  0.000e+00
      8.624    10.5992    10.6017     97.010  69.074133     12.266     0.1834      1.648   11.12738   11.11625 2.9496e-01    11.9808     3.2346    44.5460   999.7233  0.000e+00
      8.694    10.5614    10.5639     96.641  68.738731     12.366     0.1745      1.567   11.13720   11.12607 2.8233e-01    12.1907     3.5709    40.9540   999.7271  0.000e+00
      8.766    10.5261    10.5286     96.866  68.830215     12.468     0.1805      1.619   11.14637   11.13525 2.7142e-01    12.4663     3.6583    40.0686   999.7309  0.000e+00
      8.815    10.4938    10.4963     96.954  68.830222     12.538     0.1783      1.599   11.15478   11.14366 2.6412e-01    13.5156     3.6490    40.1619   999.7342  0.000e+00
      8.871    10.4658    10.4683     96.558  68.494822     12.618     0.1787      1.601   11.16209   11.15097 2.4343e-01    14.2046     3.6302    40.3514   999.7369  0.000e+00
      8.929    10.4415    10.4440     96.538  68.433845     12.701     0.1770      1.585   11.16845   11.15734 2.3945e-01    14.9487     3.7404    39.2543   999.7395  0.000e+00
      8.987    10.4158    10.4183     96.823  68.586308     12.782     0.1731      1.549   11.17516   11.16405 2.3585e-01    15.7436     3.7747    38.9196   999.7423  0.000e+00
      9.034    10.3895    10.3920     96.551  68.342384     12.849     0.1714      1.533   11.18203   11.17092 2.2669e-01    16.5280     3.7706    38.9596   999.7449  0.000e+00
      9.089    10.3652    10.3677     96.617  68.342390     12.927     0.1698      1.518   11.18841   11.17730 2.2034e-01    17.2573     3.8278    38.4059   999.7474  0.000e+00
      9.150    10.3424    10.3448     96.679  68.342395     13.015     0.1660      1.483   11.19438   11.18328 2.0764e-01    18.0183     3.8407    38.2830   999.7498  0.000e+00
      9.210    10.3199    10.3223     96.525  68.189946     13.099     0.1579      1.410   11.20029   11.18919 2.0308e-01    19.2690     3.8579    38.1186   999.7521  0.000e+00
      9.271    10.2967    10.2991     96.243  67.946026     13.187     0.1545      1.379   11.20640   11.19529 1.9784e-01    20.3926     3.8121    38.5569   999.7545  0.000e+00
      9.336    10.2731    10.2756     96.307  67.946032     13.279     0.1548      1.381   11.21258   11.20148 1.8816e-01    21.0816     3.7448    39.2113   999.7570  0.000e+00
      9.380    10.2500    10.2524     96.717  68.189962     13.341     0.1549      1.380   11.21866   11.20756 1.8738e-01    21.8808     3.6767    39.8850   999.7594  0.000e+00
      9.424    10.2256    10.2280     96.784  68.189968     13.404     0.1564      1.393   11.22508   11.21399 1.7932e-01    22.2602     3.6802    39.8495   999.7619  0.000e+00
      9.477    10.2047    10.2071     97.534  68.677833     13.479     0.1574      1.401   11.23057   11.21948 1.7671e-01    22.3493     3.6505    40.1471   999.7643  0.000e+00
      9.529    10.1802    10.1826     97.949  68.921773     13.554     0.1527      1.359   11.23701   11.22592 1.7306e-01    22.0631     3.6224    40.4299   999.7669  0.000e+00
      9.576    10.1508    10.1532     97.770  68.738828     13.620     0.1499      1.333   11.24479   11.23370 1.7089e-01    21.9359     3.6256    40.3973   999.7697  0.000e+00
      9.625    10.1208    10.1233     98.114  68.921786     13.690     0.1503      1.336   11.25270   11.24161 1.6837e-01    21.9422     3.6071    40.5853   999.7728  0.000e+00
      9.705    10.0940    10.0964     98.406  69.074253     13.804     0.1510      1.341   11.25981   11.24872 1.6027e-01    21.6306     3.5986    40.6712   999.7757  0.000e+00
      9.762    10.0700    10.0724     98.474  69.074259     13.885     0.1476      1.310   11.26617   11.25508 1.5812e-01    21.3826     3.5823    40.8370   999.7781  0.000e+00
      9.793    10.0469    10.0494     98.539  69.074265     13.929     0.1458      1.294   11.27228   11.26119 1.5725e-01    21.5543     3.5912    40.7467   999.7803  0.000e+00
      9.844    10.0318    10.0342     98.929  69.318207     14.001     0.1469      1.303   11.27628   11.26519 1.4987e-01    21.7048     3.5362    41.3109   999.7820  0.000e+00
      9.911    10.0215    10.0239     98.741  69.165748     14.096     0.1433      1.270   11.27904   11.26795 1.4870e-01    21.3041     3.5122    41.5596   999.7832  0.000e+00
      9.980    10.0120    10.0144     98.898  69.257228     14.195     0.1455      1.289   11.28155   11.27047 1.4745e-01    20.6639     3.3827    42.9262   999.7844  0.000e+00
     10.030    10.0040    10.0064     98.921  69.257230     14.267     0.1451      1.286   11.28368   11.27260 1.4667e-01    20.2082     3.2865    43.9715   999.7854  0.000e+00
     10.089     9.9972     9.9996     99.027  69.318217     14.349     0.1386      1.228   11.28549   11.27441 1.4237e-01    19.8859     3.1075    45.9837   999.7863  0.000e+00
     10.152     9.9907     9.9931     99.307  69.501175     14.440     0.1355      1.200   11.28721   11.27612 1.3816e-01    19.0952     3.0034    47.1963   999.7872  0.000e+00
     10.210     9.9823     9.9847     98.982  69.257236     14.521     0.1320      1.169   11.28944   11.27836 1.4101e-01    18.4529     3.0364    46.8084   999.7881  0.000e+00
     10.261     9.9705     9.9729     99.452  69.562166     14.595     0.1307      1.157   11.29257   11.28149 1.4088e-01    17.9144     3.0030    47.2008   999.7896  0.000e+00
     10.317     9.9578     9.9602     99.400  69.501183     14.674     0.1342      1.188   11.29595   11.28487 1.3677e-01    17.2127     3.0261    46.9298   999.7909  0.000e+00
     10.390     9.9464     9.9488     99.302  69.409708     14.778     0.1312      1.161   11.29899   11.28791 1.3549e-01    16.5450     3.0211    46.9876   999.7922  0.000e+00
     10.466     9.9364     9.9388     99.549  69.562175     14.885     0.1310      1.159   11.30167   11.29059 1.3374e-01    15.6801     3.0238    46.9565   999.7936  0.000e+00
     10.525     9.9271     9.9295     99.488  69.501192     14.970     0.1330      1.177   11.30414   11.29307 1.3294e-01    14.9635     3.0442    46.7181   999.7946  0.000e+00
     10.589     9.9176     9.9200     99.384  69.409716     15.061     0.1311      1.159   11.30669   11.29561 1.2877e-01    13.9354     3.0181    47.0231   999.7957  0.000e+00
     10.651     9.9078     9.9101     99.412  69.409719     15.150     0.1278      1.130   11.30930   11.29823 1.3185e-01    12.8797     3.0007    47.2289   999.7969  0.000e+00
     10.700     9.8972     9.8996     99.660  69.562185     15.218     0.1247      1.102   11.31212   11.30104 1.2945e-01    12.0317     2.9783    47.4940   999.7981  0.000e+00
     10.756     9.8864     9.8888     99.604  69.501202     15.298     0.1283      1.134   11.31500   11.30393 1.2954e-01    11.0629     2.9587    47.7264   999.7993  0.000e+00
     10.814     9.8767     9.8790     99.719  69.562191     15.381     0.1214      1.072   11.31760   11.30653 1.2928e-01    10.2150     2.9580    47.7353   999.8004  0.000e+00
     10.875     9.8686     9.8709     99.874  69.653672     15.468     0.1209      1.068   11.31977   11.30869 1.2655e-01     9.3649     2.9357    48.0018   999.8015  0.000e+00
     10.938     9.8618     9.8642    100.024  69.745154     15.557     0.1163      1.028   11.32157   11.31049 1.2866e-01     8.5805     2.9288    48.0847   999.8024  0.000e+00
     10.997     9.8557     9.8581    100.041  69.745155     15.642     0.1217      1.075   11.32319   11.31212 1.2548e-01     7.8873     2.8912    48.5393   999.8032  0.000e+00
     11.056     9.8495     9.8519    100.278  69.897624     15.725     0.1211      1.070   11.32485   11.31378 1.2574e-01     7.3298     2.8624    48.8902   999.8041  0.000e+00
     11.116     9.8434     9.8458    100.427  69.989106     15.811     0.1129      0.997   11.32649   11.31541 1.2318e-01     6.8231     2.8627    48.8857   999.8050  0.000e+00
     11.176     9.8379     9.8403    100.180  69.806147     15.897     0.1204      1.063   11.32796   11.31688 1.2155e-01     6.3377     2.8377    49.1922   999.8056  0.000e+00
     11.243     9.8334     9.8357    100.193  69.806149     15.992     0.1214      1.071   11.32918   11.31810 1.2326e-01     5.9328     2.7967    49.7001   999.8064  0.000e+00
     11.305     9.8298     9.8322    100.335  69.897630     16.079     0.1223      1.080   11.33012   11.31905 1.2494e-01     5.5724     2.7141    50.7365   999.8070  0.000e+00
     11.365     9.8276     9.8299    100.473  69.989112     16.165     0.1121      0.990   11.33073   11.31965 1.2323e-01     5.4155     2.6505    51.5494   999.8075  0.000e+00
     11.417     9.8261     9.8285    100.346  69.897632     16.239     0.1176      1.038   11.33112   11.32005 1.2323e-01     5.1442     2.5602    52.7265   999.8078  0.000e+00
     11.468     9.8253     9.8277    100.348  69.897632     16.311     0.1118      0.987   11.33132   11.32025 1.2253e-01     4.9746     2.4627    54.0280   999.8081  0.000e+00
     11.521     9.8245     9.8268    100.482  69.989113     16.387     0.1126      0.994   11.33155   11.32048 1.2094e-01     4.9131     2.4300    54.4707   999.8085  0.000e+00
     11.572     9.8236     9.8260    100.353  69.897633     16.459     0.1137      1.004   11.33179   11.32072 1.2094e-01     4.8198     2.4146    54.6809   999.8088  0.000e+00
     11.607     9.8231     9.8255    100.485  69.989114     16.509     0.1069      0.943   11.33191   11.32084 1.2267e-01     4.6969     2.3782    55.1814   999.8090  0.000e+00
     11.648     9.8224     9.8248    100.225  69.806154     16.567     0.1110      0.979   11.33211   11.32103 1.2228e-01     4.6036     2.3321    55.8210   999.8092  0.000e+00
     11.682     9.8213     9.8236    100.360  69.897635     16.616     0.1051      0.927   11.33242   11.32134 1.1942e-01     4.5230     2.3148    56.0624   999.8095  0.000e+00
     11.736     9.8203     9.8227    100.362  69.897635     16.692     0.1080      0.953   11.33267   11.32159 1.2022e-01     4.4573     2.3254    55.9143   999.8098  0.000e+00
     11.793     9.8196     9.8219    100.233  69.806155     16.773     0.1071      0.945   11.33287   11.32180 1.1951e-01     4.4891     2.3588    55.4494   999.8101  0.000e+00
     11.846     9.8186     9.8209    100.499  69.989117     16.848     0.1116      0.985   11.33313   11.32205 1.2289e-01     4.4192     2.3619    55.4064   999.8106  0.000e+00
     11.897     9.8164     9.8188    100.724  70.141586     16.922     0.1127      0.994   11.33370   11.32262 1.2124e-01     4.1626     2.3520    55.5441   999.8111  0.000e+00
     11.964     9.8139     9.8162    100.381  69.897638     17.017     0.1139      1.005   11.33440   11.32332 1.1782e-01     3.9634     2.3344    55.7884   999.8115  0.000e+00
     12.026     9.8113     9.8137    100.520  69.989120     17.105     0.1105      0.975   11.33508   11.32400 1.1763e-01     3.7789     2.3051    56.1986   999.8120  0.000e+00
     12.080     9.8094     9.8117    100.525  69.989120     17.181     0.1170      1.032   11.33559   11.32452 1.2061e-01     3.6051     2.2714    56.6739   999.8124  0.000e+00
     12.127     9.8076     9.8099    100.530  69.989121     17.248     0.1109      0.978   11.33608   11.32500 1.2016e-01     3.4652     2.2374    57.1580   999.8128  0.000e+00
     12.179     9.8058     9.8081    100.273  69.806161     17.322     0.1065      0.939   11.33657   11.32550 1.2108e-01     3.3550     2.2261    57.3194   999.8131  0.000e+00
     12.230     9.8039     9.8063    100.278  69.806162     17.395     0.1016      0.896   11.33707   11.32599 1.1942e-01     3.2808     2.2007    57.6851   999.8135  0.000e+00
     12.284     9.8028     9.8051    100.544  69.989123     17.472     0.1012      0.893   11.33737   11.32630 1.1951e-01     3.1260     2.1639    58.2181   999.8140  0.000e+00
     12.340     9.8019     9.8042    100.547  69.989124     17.552     0.1018      0.898   11.33761   11.32653 1.1918e-01     3.0094     2.1624    58.2404   999.8143  0.000e+00
     12.402     9.8009     9.8033    100.287  69.806164     17.639     0.1046      0.923   11.33786   11.32679 1.2122e-01     2.9585     2.1468    58.4669   999.8146  0.000e+00
     12.470     9.7996     9.8020    100.291  69.806164     17.736     0.1013      0.893   11.33822   11.32715 1.1579e-01     2.9628     2.1721    58.0982   999.8150  0.000e+00
     12.542     9.7986     9.8010    100.425  69.897645     17.839     0.1005      0.886   11.33848   11.32741 1.1634e-01     2.8695     2.1284    58.7364   999.8155  0.000e+00
     12.620     9.7976     9.7999    100.428  69.897646     17.950     0.1051      0.927   11.33877   11.32769 1.1510e-01     2.7762     2.1155    58.9274   999.8160  0.000e+00
     12.686     9.7957     9.7980    100.302  69.806167     18.044     0.1038      0.916   11.33928   11.32821 1.1618e-01     2.7126     2.0886    59.3242   999.8164  0.000e+00
     12.737     9.7933     9.7957    100.309  69.806168     18.116     0.0997      0.879   11.33991   11.32883 1.1790e-01     2.5812     2.0609    59.7373   999.8168  0.000e+00
     12.785     9.7913     9.7937    100.577  69.989129     18.185     0.0988      0.871   11.34043   11.32936 1.1723e-01     2.4561     2.0365    60.1015   999.8173  0.000e+00
     12.834     9.7896     9.7920    100.451  69.897649     18.255     0.1001      0.883   11.34090   11.32983 1.1793e-01     2.4583     2.0206    60.3414   999.8177  0.000e+00
     12.893     9.7886     9.7909    100.454  69.897650     18.338     0.1004      0.885   11.34118   11.33011 1.1704e-01     2.4243     2.0079    60.5339   999.8180  0.000e+00
     12.955     9.7871     9.7895    100.940  70.233082     18.427     0.1003      0.885   11.34156   11.33048 1.1739e-01     2.4307     2.0018    60.6257   999.8186  0.000e+00
     13.001     9.7859     9.7883    101.163  70.385553     18.492     0.1030      0.908   11.34186   11.33079 1.1656e-01     2.4307     2.0082    60.5294   999.8190  0.000e+00
     13.040     9.7850     9.7874    101.078  70.324565     18.547     0.0941      0.829   11.34212   11.33104 1.1592e-01     2.4371     1.9857    60.8700   999.8192  0.000e+00
     13.093     9.7831     9.7854    100.952  70.233084     18.622     0.0977      0.861   11.34264   11.33156 1.1452e-01     2.4010     1.9691    61.1231   999.8196  0.000e+00
     13.167     9.7813     9.7836    101.089  70.324567     18.728     0.1013      0.893   11.34311   11.33204 1.1600e-01     2.3247     1.9762    61.0151   999.8202  0.000e+00
     13.236     9.7793     9.7816    101.445  70.568522     18.825     0.0973      0.858   11.34365   11.33258 1.1573e-01     2.3819     1.9642    61.1987   999.8208  0.000e+00
     13.278     9.7759     9.7783    101.674  70.720996     18.886     0.0976      0.860   11.34453   11.33346 1.1502e-01     2.3417     1.9524    61.3793   999.8213  0.000e+00
     13.334     9.7721     9.7744    101.554  70.629514     18.966     0.0964      0.849   11.34557   11.33449 1.1523e-01     2.2993     1.9460    61.4770   999.8219  0.000e+00
     13.418     9.7689     9.7712    101.344  70.477042     19.085     0.1034      0.911   11.34643   11.33536 1.1400e-01     2.1615     1.9146    61.9627   999.8225  0.000e+00
     13.493     9.7666     9.7690    101.350  70.477043     19.191     0.0990      0.872   11.34704   11.33597 1.1581e-01     2.2229     1.9112    62.0145   999.8230  0.000e+00
     13.560     9.7649     9.7672    101.487  70.568528     19.286     0.0998      0.880   11.34750   11.33643 1.1573e-01     2.3141     1.9035    62.1344   999.8235  0.000e+00
     13.630     9.7646     9.7669    101.488  70.568528     19.386     0.0960      0.846   11.34758   11.33651 1.1693e-01     2.2272     1.8893    62.3550   999.8239  0.000e+00
     13.687     9.7647     9.7671    101.356  70.477045     19.468     0.0915      0.807   11.34756   11.33648 1.1587e-01     2.0894     1.8732    62.6067   999.8241  0.000e+00
     13.737     9.7645     9.7669    101.225  70.385563     19.538     0.0936      0.824   11.34761   11.33653 1.1592e-01     2.0025     1.8521    62.9384   999.8243  0.000e+00
     13.781     9.7642     9.7665    101.138  70.324575     19.601     0.0953      0.840   11.34770   11.33663 1.1539e-01     1.9071     1.8694    62.6660   999.8245  0.000e+00
     13.846     9.7638     9.7662    101.490  70.568530     19.694     0.0933      0.822   11.34779   11.33671 1.1549e-01     1.8329     1.8603    62.8096   999.8250  0.000e+00
     13.918     9.7638     9.7662    101.359  70.477047     19.796     0.0928      0.818   11.34779   11.33672 1.1342e-01     1.8371     1.8596    62.8199   999.8253  0.000e+00
     13.982     9.7644     9.7668    101.357  70.477047     19.886     0.0962      0.848   11.34763   11.33656 1.1473e-01     1.8074     1.8375    63.1679   999.8255  0.000e+00
     14.030     9.7630     9.7654    101.229  70.385565     19.955     0.0937      0.825   11.34801   11.33694 1.1267e-01     1.7841     1.8456    63.0406   999.8258  0.000e+00
     14.078     9.7618     9.7641    101.365  70.477048     20.024     0.0988      0.870   11.34835   11.33728 1.1473e-01     1.7438     1.8419    63.0983   999.8262  0.000e+00
     14.144     9.7616     9.7639    101.585  70.629521     20.118     0.0951      0.838   11.34839   11.33732 1.1283e-01     1.6972     1.8439    63.0672   999.8266  0.000e+00
     14.198     9.7627     9.7651    101.493  70.568532     20.194     0.0935      0.824   11.34808   11.33701 1.1666e-01     1.6675     1.8555    62.8836   999.8267  0.000e+00
     14.243     9.7636     9.7659    101.579  70.629522     20.258     0.0951      0.838   11.34786   11.33679 1.1549e-01     1.6718     1.8330    63.2390   999.8269  0.000e+00
     14.291     9.7644     9.7668    101.357  70.477049     20.327     0.0957      0.844   11.34763   11.33656 1.1457e-01     1.6336     1.8278    63.3219   999.8270  0.000e+00
     14.355     9.7647     9.7670    101.225  70.385567     20.418     0.0952      0.839   11.34758   11.33650 1.1259e-01     1.6506     1.8244    63.3752   999.8272  0.000e+00
     14.422     9.7638     9.7661    101.490  70.568534     20.513     0.0918      0.809   11.34780   11.33673 1.1696e-01     1.5997     1.8308    63.2745   999.8277  0.000e+00
     14.486     9.7626     9.7649    101.494  70.568534     20.604     0.0929      0.818   11.34813   11.33706 1.1828e-01     1.6294     1.8262    63.3470   999.8281  0.000e+00
     14.546     9.7619     9.7643    101.145  70.324580     20.690     0.0955      0.842   11.34831   11.33724 1.1804e-01     1.6167     1.8221    63.4107   999.8283  0.000e+00
     14.607     9.7613     9.7637    101.234  70.385569     20.776     0.0950      0.837   11.34847   11.33739 1.1640e-01     1.6082     1.8367    63.1812   999.8287  0.000e+00
     14.664     9.7604     9.7627    101.369  70.477053     20.857     0.0881      0.777   11.34873   11.33765 1.1656e-01     1.6230     1.8347    63.2123   999.8291  0.000e+00
     14.714     9.7597     9.7621    101.502  70.568536     20.929     0.0883      0.778   11.34889   11.33782 1.1760e-01     1.6294     1.8265    63.3411   999.8294  0.000e+00
     14.771     9.7584     9.7607    101.594  70.629526     21.009     0.0920      0.811   11.34925   11.33818 1.1752e-01     1.7120     1.8229    63.3989   999.8298  0.000e+00
     14.829     9.7581     9.7604    101.375  70.477054     21.091     0.0884      0.779   11.34934   11.33826 1.1701e-01     1.6633     1.8203    63.4403   999.8300  0.000e+00
     14.880     9.7588     9.7611    101.154  70.324583     21.165     0.0934      0.823   11.34916   11.33808 1.1774e-01     1.6824     1.8172    63.4892   999.8301  0.000e+00
     14.919     9.7594     9.7617    101.152  70.324583     21.220     0.0895      0.788   11.34900   11.33793 1.1923e-01     1.7354     1.8355    63.1990   999.8303  0.000e+00
     14.975     9.7598     9.7622    101.239  70.385572     21.299     0.0878      0.773   11.34887   11.33780 1.1656e-01     1.7036     1.8164    63.5025   999.8305  0.000e+00
     15.042     9.7602     9.7626    101.369  70.477055     21.395     0.0870      0.766   11.34876   11.33768 1.1629e-01     1.6421     1.8467    63.0228   999.8308  0.000e+00
     15.092     9.7598     9.7621    101.721  70.721012     21.467     0.0923      0.813   11.34887   11.33780 1.1653e-01     1.6887     1.8494    62.9799   999.8312  0.000e+00
     15.137     9.7581     9.7605    101.858  70.812497     21.531     0.0933      0.822   11.34930   11.33823 1.1680e-01     1.6951     1.8086    63.6254   999.8316  0.000e+00
     15.192     9.7569     9.7593    101.861  70.812498     21.609     0.0896      0.790   11.34963   11.33856 1.1852e-01     1.7417     1.8136    63.5469   999.8320  0.000e+00
     15.265     9.7566     9.7589    101.380  70.477058     21.712     0.0948      0.836   11.34974   11.33867 1.1817e-01     1.6972     1.8167    63.4966   999.8322  0.000e+00
     15.329     9.7570     9.7594    101.159  70.324587     21.803     0.0894      0.788   11.34962   11.33855 1.1798e-01     1.6718     1.8123    63.5677   999.8324  0.000e+00
     15.383     9.7576     9.7599    101.377  70.477058     21.879     0.0923      0.813   11.34948   11.33840 1.1869e-01     1.6506     1.8161    63.5070   999.8327  0.000e+00
     15.439     9.7568     9.7591    101.599  70.629531     21.959     0.0894      0.788   11.34969   11.33861 1.1825e-01     1.6908     1.8290    63.3026   999.8331  0.000e+00
     15.497     9.7561     9.7584    101.688  70.690521     22.042     0.0888      0.782   11.34987   11.33880 1.1910e-01     1.6485     1.8018    63.7335   999.8334  0.000e+00
     15.555     9.7553     9.7576    101.734  70.721016     22.124     0.0905      0.797   11.35007   11.33900 1.1893e-01     1.6082     1.7933    63.8697   999.8338  0.000e+00
     15.603     9.7551     9.7575    101.603  70.629533     22.193     0.0852      0.751   11.35012   11.33905 1.1880e-01     1.6357     1.8070    63.6521   999.8340  0.000e+00
     15.656     9.7555     9.7579    108.095  75.143242     22.268     0.0825      0.727   11.34980   11.33873 1.1766e-01     1.6315     1.8193    63.4566   999.8365  0.000e+00
     15.724     9.7539     9.7562    198.148 137.737859     22.365     0.0858      0.756   11.34722   11.33616 1.1547e-01     1.6675     1.8143    63.5351   999.8699  0.000e+00
     15.758     9.7537     9.7560    228.228 158.645902     22.414     0.0887      0.782   11.34625   11.33520 1.1715e-01     1.6082     1.8068    63.6550   999.8812  0.000e+00
     15.761     9.7555     9.7579    230.815 160.453026     22.417     0.0819      0.722   11.34566   11.33461 1.1915e-01     1.7248     1.8004    63.7557   999.8820  0.000e+00
     15.774     9.7567     9.7590    233.936 162.627914     22.435     0.0899      0.793   11.34525   11.33420 1.1774e-01     2.3014     1.8024    63.7246   999.8832  0.000e+00
     15.774     9.7582     9.7605    235.468 163.700128     22.435     0.0890      0.785   11.34479   11.33374 1.1707e-01     2.2738     1.8020    63.7305   999.8836  0.000e+00
     15.781     9.7597     9.7621    236.295 164.282210     22.446     0.0877      0.773   11.34435   11.33330 1.1814e-01     2.1403     1.7970    63.8105   999.8838  0.000e+00
     15.813     9.7615     9.7638    237.473 165.109409     22.492     0.0839      0.739   11.34384   11.33280 1.1793e-01     2.1127     1.8209    63.4300   999.8843  0.000e+00
     15.867     9.7634     9.7657    238.782 166.028558     22.568     0.0891      0.786   11.34328   11.33224 1.1782e-01     2.0194     1.8158    63.5114   999.8848  0.000e+00
     15.909     9.7664     9.7687    239.863 166.794547     22.628     0.0920      0.811   11.34244   11.33139 1.1747e-01     2.1572     1.8258    63.3530   999.8852  0.000e+00
     15.923     9.7697     9.7720    240.898 167.529923     22.648     0.0911      0.803   11.34153   11.33048 1.1728e-01     2.1063     1.8224    63.4063   999.8853  0.000e+00
     15.930     9.7724     9.7748    241.451 167.928263     22.657     0.0874      0.771   11.34076   11.32971 1.1701e-01     2.0025     1.8905    62.3358   999.8853  0.000e+00
     15.935     9.7755     9.7778    241.694 168.112113     22.665     0.0814      0.718   11.33994   11.32889 1.1771e-01     1.8922     1.8446    63.0554   999.8852  0.000e+00
     15.942     9.7798     9.7821    241.885 168.265322     22.675     0.0877      0.773   11.33878   11.32773 1.1779e-01     1.8180     1.8166    63.4981   999.8849  0.000e+00
