* Sea-Bird SBE19plus  Data File:
* FileName = C:\Users\dcastle\Documents\CTD\SBE19plus_01908200_2024_03_27_0001.hex
* Software version 2.8.0.119
* Temperature SN = 8200
* Conductivity SN = 8200
* System UpLoad Time = Mar 27 2024 14:46:47
* <ApplicationData>
* <Seaterm232>
* <SoftwareVersion>2.8.0.119</SoftwareVersion>
* <BuildDate>07-Nov-2018</BuildDate>
* </Seaterm232>
* </ApplicationData>
* <InstrumentState>
* <HardwareData DeviceType='SBE19plus' SerialNumber='01908200'>
*
*    <Manufacturer>Sea-Bird Electronics, Inc.</Manufacturer>
*
*    <FirmwareVersion>3.1.8</FirmwareVersion>
*
*    <FirmwareDate>Mar  9 2016 16:22:29</FirmwareDate>
*
*    <CommandSetVersion>1.4</CommandSetVersion>
*
*    <PCBAssembly PCBSerialNum='262471' AssemblyNum='41054K'/>
*
*    <PCBAssembly PCBSerialNum='262475' AssemblyNum='41059E'/>
*
*    <PCBAssembly PCBSerialNum='262477' AssemblyNum='41606B'/>
*
*    <PCBAssembly PCBSerialNum='262473' AssemblyNum='41967C'/>
*
*    <MfgDate>15 Jun 2022</MfgDate>
*
*    <InternalSensors>
*
*       <Sensor id='Main Temperature'>
*
*          <type>temperature0</type>
*
*          <SerialNumber>01908200</SerialNumber>
*
*       </Sensor>
*
*       <Sensor id='Main Conductivity'>
*
*          <type>conductivity-0</type>
*
*          <SerialNumber>01908200</SerialNumber>
*
*       </Sensor>
*
*       <Sensor id='Main Pressure'>
*
*          <type>strain-0</type>
*
*          <SerialNumber>12287607</SerialNumber>
*
*       </Sensor>
*
*    </InternalSensors>
*
*    <ExternalSensors>
*
*       <Sensor id='volt 0'>
*
*          <type>not assigned</type>
*
*          <SerialNumber>not assigned</SerialNumber>
*
*       </Sensor>
*
*       <Sensor id='volt 1'>
*
*          <type>not assigned</type>
*
*          <SerialNumber>not assigned</SerialNumber>
*
*       </Sensor>
*
*       <Sensor id='volt 2'>
*
*          <type>not assigned</type>
*
*          <SerialNumber>not assigned</SerialNumber>
*
*       </Sensor>
*
*       <Sensor id='volt 3'>
*
*          <type>not assigned</type>
*
*          <SerialNumber>not assigned</SerialNumber>
*
*       </Sensor>
*
*       <Sensor id='volt 4'>
*
*          <type>not assigned</type>
*
*          <SerialNumber>not assigned</SerialNumber>
*
*       </Sensor>
*
*       <Sensor id='volt 5'>
*
*          <type>not assigned</type>
*
*          <SerialNumber>not assigned</SerialNumber>
*
*       </Sensor>
*
*       <Sensor id='serial'>
*
*          <type>not assigned</type>
*
*          <SerialNumber>not assigned</SerialNumber>
*
*       </Sensor>
*
*    </ExternalSensors>
*
* </HardwareData>
* <StatusData DeviceType='SBE19plus' SerialNumber='01908200'>
*
*    <DateTime>2024-03-27T14:46:06</DateTime>
*
*    <LoggingState>not logging</LoggingState>
*
*    <EventSummary numEvents='0'/>
*
*    <Power>
*
*       <vMain>12.5</vMain>
*
*       <vLith>8.4</vLith>
*
*       <iMain>61.4</iMain>
*
*       <iPump>62.1</iPump>
*
*       <iExt01>16.4</iExt01>
*
*       <iExt2345>95.1</iExt2345>
*
*    </Power>
*
*    <MemorySummary>
*
*       <Bytes>315307</Bytes>
*
*       <Samples>13709</Samples>
*
*       <SamplesFree>2847079</SamplesFree>
*
*       <SampleLength>23</SampleLength>
*
*       <Profiles>10</Profiles>
*
*    </MemorySummary>
*
* </StatusData>
* <ConfigurationData DeviceType='SBE19plus' SerialNumber='01908200'>
*
*    <ProfileMode>
*
*       <ScansToAverage>1</ScansToAverage>
*
*       <MinimumCondFreq>2645</MinimumCondFreq>
*
*       <PumpDelay>60</PumpDelay>
*
*       <AutoRun>no</AutoRun>
*
*       <IgnoreSwitch>no</IgnoreSwitch>
*
*    </ProfileMode>
*
*    <Battery>
*
*       <Type>alkaline</Type>
*
*       <CutOff>7.5</CutOff>
*
*    </Battery>
*
*    <DataChannels>
*
*       <ExtVolt0>yes</ExtVolt0>
*
*       <ExtVolt1>yes</ExtVolt1>
*
*       <ExtVolt2>yes</ExtVolt2>
*
*       <ExtVolt3>yes</ExtVolt3>
*
*       <ExtVolt4>yes</ExtVolt4>
*
*       <ExtVolt5>yes</ExtVolt5>
*
*       <SBE38>no</SBE38>
*
*       <WETLABS>no</WETLABS>
*
*       <OPTODE>no</OPTODE>
*
*       <SBE63>no</SBE63>
*
*       <SeaFET>no</SeaFET>
*
*       <GTD>no</GTD>
*
*    </DataChannels>
*
*    <EchoCharacters>yes</EchoCharacters>
*
*    <OutputExecutedTag>yes</OutputExecutedTag>
*
*    <OutputFormat>raw HEX</OutputFormat>
*
* </ConfigurationData>
* <CalibrationCoefficients DeviceType='SBE19plus' SerialNumber='01908200'>
*
*    <Calibration format='TEMP1' id='Main Temperature'>
*
*       <SerialNum>01908200</SerialNum>
*
*       <CalDate>01-Jul-22</CalDate>
*
*       <TA0>1.273074e-03</TA0>
*
*       <TA1>2.634339e-04</TA1>
*
*       <TA2>6.102413e-07</TA2>
*
*       <TA3>1.045053e-07</TA3>
*
*       <TOFFSET>0.000000e+00</TOFFSET>
*
*    </Calibration>
*
*    <Calibration format='WBCOND0' id='Main Conductivity'>
*
*       <SerialNum>01908200</SerialNum>
*
*       <CalDate>01-Jul-22</CalDate>
*
*       <G>-1.000954e+00</G>
*
*       <H>1.438363e-01</H>
*
*       <I>-2.457737e-04</I>
*
*       <J>4.045354e-05</J>
*
*       <CPCOR>-9.570000e-08</CPCOR>
*
*       <CTCOR>3.250000e-06</CTCOR>
*
*       <CSLOPE>1.000000e+00</CSLOPE>
*
*    </Calibration>
*
*    <Calibration format='STRAIN0' id='Main Pressure'>
*
*       <SerialNum>12287607</SerialNum>
*
*       <CalDate>20-Jun-22</CalDate>
*
*       <PA0>5.417929e-02</PA0>
*
*       <PA1>1.544327e-03</PA1>
*
*       <PA2>5.749058e-12</PA2>
*
*       <PTCA0>5.243616e+05</PTCA0>
*
*       <PTCA1>5.371927e+00</PTCA1>
*
*       <PTCA2>-1.739922e-01</PTCA2>
*
*       <PTCB0>2.506713e+01</PTCB0>
*
*       <PTCB1>-5.750000e-04</PTCB1>
*
*       <PTCB2>0.000000e+00</PTCB2>
*
*       <PTEMPA0>-6.303813e+01</PTEMPA0>
*
*       <PTEMPA1>5.003359e+01</PTEMPA1>
*
*       <PTEMPA2>-6.230146e-02</PTEMPA2>
*
*       <POFFSET>0.000000e+00</POFFSET>
*
*       <PRANGE>5.080000e+02</PRANGE>
*
*    </Calibration>
*
*    <Calibration format='VOLT0' id='Volt 0'>
*
*       <OFFSET>-4.688400e-02</OFFSET>
*
*       <SLOPE>1.251355e+00</SLOPE>
*
*    </Calibration>
*
*    <Calibration format='VOLT0' id='Volt 1'>
*
*       <OFFSET>-4.659100e-02</OFFSET>
*
*       <SLOPE>1.252580e+00</SLOPE>
*
*    </Calibration>
*
*    <Calibration format='VOLT0' id='Volt 2'>
*
*       <OFFSET>-4.627400e-02</OFFSET>
*
*       <SLOPE>1.252280e+00</SLOPE>
*
*    </Calibration>
*
*    <Calibration format='VOLT0' id='Volt 3'>
*
*       <OFFSET>-4.753100e-02</OFFSET>
*
*       <SLOPE>1.251494e+00</SLOPE>
*
*    </Calibration>
*
*    <Calibration format='VOLT0' id='Volt 4'>
*
*       <OFFSET>-4.641400e-02</OFFSET>
*
*       <SLOPE>1.250582e+00</SLOPE>
*
*    </Calibration>
*
*    <Calibration format='VOLT0' id='Volt 5'>
*
*       <OFFSET>-4.738800e-02</OFFSET>
*
*       <SLOPE>1.251858e+00</SLOPE>
*
*    </Calibration>
*
*    <Calibration format='FREQ0' id='external frequency channel'>
*
*       <EXTFREQSF>1.000018e+00</EXTFREQSF>
*
*    </Calibration>
*
* </CalibrationCoefficients>
* <EventCounters DeviceType='SBE19plus' SerialNumber='01908200'>
*
*    <EventSummary numEvents='0'/>
*
* </EventCounters></InstrumentState>
* <Headers>
*
* cast   1 21 Mar 2024 09:13:32 samples 1 to 982, avg = 1, stop = mag switch
*
# nquan = 16
# nvalues = 791                                   
# units = specified
# name 0 = depFM: Depth [fresh water, m]
# name 1 = tv290C: Temperature [ITS-90, deg C]
# name 2 = tv268C: Temperature [IPTS-68, deg C]
# name 3 = specc: Specific Conductance [uS/cm]
# name 4 = c0uS/cm: Conductivity [uS/cm]
# name 5 = prdE: Pressure, Strain Gauge [psi]
# name 6 = sbeox0Mg/L: Oxygen, SBE 43 [mg/l]
# name 7 = sbeox0PS: Oxygen, SBE 43 [% saturation]
# name 8 = oxsolMg/L: Oxygen Saturation, Garcia & Gordon [mg/l]
# name 9 = oxsatMg/L: Oxygen Saturation, Weiss [mg/l]
# name 10 = par/sat/log: PAR/Logarithmic, Satlantic [umol photons/m^2/sec]
# name 11 = flCM: Fluorescence, Chelsea Mini Chl Con [ug/l]
# name 12 = CStarAt0: Beam Attenuation, WET Labs C-Star [1/m]
# name 13 = CStarTr0: Beam Transmission, WET Labs C-Star [%]
# name 14 = density00: Density [density, kg/m^3]
# name 15 = flag:  0.000e+00
# span 0 =     -0.510,     14.799                 
# span 1 =     9.9438,    17.7499                 
# span 2 =     9.9462,    17.7542                 
# span 3 =      0.457,    185.469                 
# span 4 =   0.349403, 129.658347                 
# span 5 =     -0.726,     21.049                 
# span 6 =    -0.8827,    10.2119                 
# span 7 =     -8.326,    104.694                 
# span 8 =    9.51308,   11.29757                 
# span 9 =    9.49850,   11.28650                 
# span 10 = 1.1263e-01, 2.3380e+03                
# span 11 =    -0.3612,    29.3449                
# span 12 =     1.3949,    13.3860                
# span 13 =     3.5208,    70.5592                
# span 14 =   998.6846,   999.8438                
# span 15 = 0.0000e+00, 0.0000e+00                
# interval = seconds: 0.25
# start_time = Mar 21 2024 09:13:32 [Instrument's time stamp, header]
# bad_flag = -9.990e-29
# <Sensors count="9" >
#   <sensor Channel="1" >
#     <!-- Count, Temperature -->
#     <TemperatureSensor SensorID="58" >
#       <SerialNumber>8200</SerialNumber>
#       <CalibrationDate>01-Jul-22</CalibrationDate>
#       <A0>1.27307364e-003</A0>
#       <A1>2.63433881e-004</A1>
#       <A2>6.10241346e-007</A2>
#       <A3>1.04505265e-007</A3>
#       <Slope>1.00000000</Slope>
#       <Offset>0.0000</Offset>
#     </TemperatureSensor>
#   </sensor>
#   <sensor Channel="2" >
#     <!-- Frequency 0, Conductivity -->
#     <ConductivitySensor SensorID="3" >
#       <SerialNumber>8200</SerialNumber>
#       <CalibrationDate>01-Jul-22</CalibrationDate>
#       <UseG_J>1</UseG_J>
#       <!-- Cell const and series R are applicable only for wide range sensors. -->
#       <SeriesR>0.0000</SeriesR>
#       <CellConst>2000.0000</CellConst>
#       <ConductivityType>0</ConductivityType>
#       <Coefficients equation="0" >
#         <A>0.00000000e+000</A>
#         <B>0.00000000e+000</B>
#         <C>0.00000000e+000</C>
#         <D>0.00000000e+000</D>
#         <M>0.0</M>
#         <CPcor>-9.57000000e-008</CPcor>
#       </Coefficients>
#       <Coefficients equation="1" >
#         <G>-1.00095430e+000</G>
#         <H>1.43836252e-001</H>
#         <I>-2.45773667e-004</I>
#         <J>4.04535414e-005</J>
#         <CPcor>-9.57000000e-008</CPcor>
#         <CTcor>3.2500e-006</CTcor>
#         <!-- WBOTC not applicable unless ConductivityType = 1. -->
#         <WBOTC>0.00000000e+000</WBOTC>
#       </Coefficients>
#       <Slope>1.00000000</Slope>
#       <Offset>0.00000</Offset>
#     </ConductivitySensor>
#   </sensor>
#   <sensor Channel="3" >
#     <!-- Count, Pressure, Strain Gauge -->
#     <PressureSensor SensorID="46" >
#       <SerialNumber>8200</SerialNumber>
#       <CalibrationDate>20-Jun-22</CalibrationDate>
#       <PA0>5.41792865e-002</PA0>
#       <PA1>1.54432654e-003</PA1>
#       <PA2>5.74905779e-012</PA2>
#       <PTEMPA0>-6.30381273e+001</PTEMPA0>
#       <PTEMPA1>5.00335947e+001</PTEMPA1>
#       <PTEMPA2>-6.23014614e-002</PTEMPA2>
#       <PTCA0>5.24361650e+005</PTCA0>
#       <PTCA1>5.37192737e+000</PTCA1>
#       <PTCA2>-1.73992204e-001</PTCA2>
#       <PTCB0>2.50671250e+001</PTCB0>
#       <PTCB1>-5.75000000e-004</PTCB1>
#       <PTCB2>0.00000000e+000</PTCB2>
#       <Offset>0.000000</Offset>
#     </PressureSensor>
#   </sensor>
#   <sensor Channel="4" >
#     <!-- A/D voltage 0, PAR/Logarithmic, Satlantic -->
#     <PARLog_SatlanticSensor SensorID="76" >
#       <SerialNumber>2214</SerialNumber>
#       <CalibrationDate>5/20/22</CalibrationDate>
#       <a0>9.9290e-001</a0>
#       <a1>8.0312e-001</a1>
#       <Im>1.3589e+000</Im>
#       <ConversionUnits>1</ConversionUnits>
#       <Multiplier>1.0000e+000</Multiplier>
#     </PARLog_SatlanticSensor>
#   </sensor>
#   <sensor Channel="5" >
#     <!-- A/D voltage 1, Free -->
#   </sensor>
#   <sensor Channel="6" >
#     <!-- A/D voltage 2, Oxygen, SBE 43 -->
#     <OxygenSensor SensorID="38" >
#       <SerialNumber>0268</SerialNumber>
#       <CalibrationDate>29-Feb-20</CalibrationDate>
#       <Use2007Equation>1</Use2007Equation>
#       <CalibrationCoefficients equation="0" >
#         <!-- Coefficients for Owens-Millard equation. -->
#         <Boc>0.0000</Boc>
#         <Soc>0.0000e+000</Soc>
#         <offset>0.0000</offset>
#         <Pcor>0.00e+000</Pcor>
#         <Tcor>0.0000</Tcor>
#         <Tau>0.0</Tau>
#       </CalibrationCoefficients>
#       <CalibrationCoefficients equation="1" >
#         <!-- Coefficients for Sea-Bird equation - SBE calibration in 2007 and later. -->
#         <Soc>5.4910e-001</Soc>
#         <offset>-0.4386</offset>
#         <A>-3.6337e-003</A>
#         <B> 1.0518e-004</B>
#         <C>-1.0368e-006</C>
#         <D0> 2.5826e+000</D0>
#         <D1> 1.92634e-004</D1>
#         <D2>-4.64803e-002</D2>
#         <E> 3.6000e-002</E>
#         <Tau20> 1.2800</Tau20>
#         <H1>-3.3000e-002</H1>
#         <H2> 5.0000e+003</H2>
#         <H3> 1.4500e+003</H3>
#       </CalibrationCoefficients>
#     </OxygenSensor>
#   </sensor>
#   <sensor Channel="7" >
#     <!-- A/D voltage 3, Transmissometer, WET Labs C-Star -->
#     <WET_LabsCStar SensorID="71" >
#       <SerialNumber>CST-612PR</SerialNumber>
#       <CalibrationDate>6/27/02</CalibrationDate>
#       <M>19.4066</M>
#       <B>-1.1062</B>
#       <PathLength>0.250</PathLength>
#     </WET_LabsCStar>
#   </sensor>
#   <sensor Channel="8" >
#     <!-- A/D voltage 4, Fluorometer, Chelsea Minitracka -->
#     <FluoroChelseaMinitrackaSensor SensorID="6" >
#       <SerialNumber>175011</SerialNumber>
#       <CalibrationDate>26-Mar-97</CalibrationDate>
#       <Vacetone>0.013</Vacetone>
#       <Vacetone100>3.612</Vacetone100>
#       <Offset>0.000</Offset>
#     </FluoroChelseaMinitrackaSensor>
#   </sensor>
#   <sensor Channel="9" >
#     <!-- A/D voltage 5, Free -->
#   </sensor>
# </Sensors>
# datcnv_date = Jun 05 2024 15:40:42, 7.26.7.129 [datcnv_vars = 15]
# datcnv_in = C:\Users\ir64\OneDrive - The University of Waikato\Documents\Sampling\CTD casts\2024.03 CTD casts\2024.03 HEX files\2024.03.22 second sampling\2024.03 Okaro 1 0001.hex C:\Users\ir64\OneDrive - The University of Waikato\Documents\Sampling\CTD casts\2024.03 CTD casts\2024.03 HEX files\2024.03.22 second sampling\CTD#3 for March 2024 deploymentV7.xmlcon
# datcnv_skipover = 0
# datcnv_ox_hysteresis_correction = yes
# datcnv_ox_tau_correction = yes
# file_type = ascii
*END*
     -0.506    13.4220    13.4253      0.570   0.438192     -0.720    10.1533     97.273   10.43798   10.42601 2.1276e+03    -0.2171     1.5038    68.6640   999.3273  0.000e+00
     -0.506    13.4124    13.4156      0.493   0.378999     -0.720    10.1569     97.286   10.44021   10.42824 2.1407e+03    -0.1683     1.4804    69.0667   999.3286  0.000e+00
     -0.505    13.4000    13.4033      0.571   0.438192     -0.718    10.1688     97.374   10.44308   10.43112 2.1430e+03    -0.1789     1.4367    69.8248   999.3302  0.000e+00
     -0.508    13.3882    13.3914      0.571   0.438192     -0.723    10.1671     97.332   10.44582   10.43387 2.1562e+03    -0.1683     1.4050    70.3815   999.3318  0.000e+00
     -0.507    13.3796    13.3828      0.494   0.378999     -0.721    10.1765     97.403   10.44781   10.43586 2.1928e+03    -0.1619     1.3979    70.5059   999.3329  0.000e+00
     -0.509    13.3728    13.3760      0.571   0.438192     -0.724    10.1813     97.435   10.44940   10.43745 2.1638e+03    -0.1704     1.4027    70.4215   999.3338  0.000e+00
     -0.506    13.3663    13.3695      0.494   0.378999     -0.720    10.1758     97.368   10.45090   10.43896 2.1077e+03    -0.2637     1.4087    70.3164   999.3346  0.000e+00
     -0.507    13.3571    13.3603      0.494   0.378999     -0.721    10.1830     97.416   10.45305   10.44111 1.9644e+03    -0.1619     1.4101    70.2912   999.3358  0.000e+00
     -0.507    13.3466    13.3498      0.494   0.378999     -0.721    10.1861     97.423   10.45547   10.44353 2.3050e+03    -0.2001     1.4095    70.3016   999.3372  0.000e+00
     -0.507    13.3371    13.3403      0.494   0.378999     -0.721    10.1877     97.419   10.45768   10.44575 2.3135e+03    -0.1768     1.4061    70.3623   999.3384  0.000e+00
     -0.508    13.3287    13.3319      0.494   0.378999     -0.723    10.1857     97.381   10.45963   10.44770 2.3212e+03    -0.2595     1.4054    70.3741   999.3395  0.000e+00
     -0.508    13.3199    13.3231      0.494   0.378999     -0.723    10.1832     97.338   10.46167   10.44975 2.3380e+03    -0.1280     1.4041    70.3963   999.3407  0.000e+00
     -0.507    13.3115    13.3147      0.495   0.378999     -0.721    10.1816     97.305   10.46363   10.45171 2.2784e+03    -0.1323     1.4034    70.4082   999.3418  0.000e+00
     -0.508    13.3039    13.3071      0.495   0.378999     -0.723    10.1857     97.328   10.46541   10.45349 2.2869e+03    -0.3612     1.4044    70.3919   999.3428  0.000e+00
     -0.508    13.2965    13.2997      0.495   0.378999     -0.723    10.1873     97.327   10.46712   10.45521 2.2354e+03    -0.3612     1.4074    70.3386   999.3437  0.000e+00
     -0.506    13.2882    13.2914      0.495   0.378999     -0.720    10.1878     97.313   10.46906   10.45715 2.2408e+03    -0.3612     1.4067    70.3504   999.3448  0.000e+00
     -0.508    13.2793    13.2825      0.495   0.378999     -0.723    10.1835     97.253   10.47113   10.45922 2.1327e+03     0.1412     1.4023    70.4289   999.3460  0.000e+00
     -0.510    13.2693    13.2725      0.495   0.378999     -0.726    10.1967     97.357   10.47345   10.46155 1.9907e+03     0.3553     1.3991    70.4852   999.3472  0.000e+00
     -0.509    13.2635    13.2667      0.495   0.378999     -0.724    10.2020     97.396   10.47480   10.46290 1.8356e+03     1.3898     1.3960    70.5385   999.3480  0.000e+00
     -0.509    13.2580    13.2612      0.495   0.378999     -0.724    10.2103     97.463   10.47610   10.46420 1.4264e+03     1.4598     1.3955    70.5473   999.3487  0.000e+00
     -0.509    13.2507    13.2539      0.457   0.349403     -0.724    10.2061     97.407   10.47779   10.46590 1.0105e+03     1.0358     1.3949    70.5592   999.3497  0.000e+00
     -0.508    13.2468    13.2500      0.495   0.378999     -0.723    10.2119     97.454   10.47871   10.46681 1.0616e+02     0.8323     1.3957    70.5444   999.3502  0.000e+00
     -0.405    13.3908    13.3940     89.603  68.804014     -0.576    10.1661     97.350   10.44283   10.43088 8.7395e+01     0.3702     1.3964    70.5325   999.3607  0.000e+00
     -0.250    14.5881    14.5916    118.227  93.616298     -0.355     9.8917     97.254   10.17093   10.15839 9.2915e+01    -0.3612     7.8356    14.1013   999.2056  0.000e+00
     -0.136    15.6955    15.6993    111.576  90.821177     -0.193     9.6470     97.136    9.93144    9.91825 9.0825e+01    -0.3612    13.3860     3.5208   999.0350  0.000e+00
     -0.018    16.5128    16.5168    105.727  87.788743     -0.026     9.4636     96.952    9.76112    9.74739 5.5412e+01     1.3135     5.7723    23.6203   998.8998  0.000e+00
      0.036    17.0247    17.0287    103.307  86.837417      0.051     9.3508     96.828    9.65709    9.64301 4.6111e+01     1.4661     4.6222    31.4884   998.8117  0.000e+00
      0.082    17.2594    17.2635    101.749  86.005105      0.116     9.3200     96.982    9.61005    9.59581 4.2211e+01     1.6781     2.2804    56.5465   998.7702  0.000e+00
      0.109    17.3879    17.3920    102.387  86.807591      0.155     9.3307     97.353    9.58445    9.57012 5.0559e+01     2.2208     6.9062    17.7896   998.7477  0.000e+00
      0.112    17.4729    17.4771    101.972  86.629227      0.159     9.3543     97.770    9.56759    9.55320 4.2165e+01     2.2335     3.9840    36.9356   998.7324  0.000e+00
      0.145    17.5190    17.5232    101.127  86.005033      0.206     9.3917     98.255    9.55848    9.54405 4.5770e+01     2.1784     3.5009    41.6766   998.7240  0.000e+00
      0.183    17.5277    17.5319    101.526  86.361703      0.260     9.4480     98.862    9.55676    9.54233 4.2184e+01     2.1085     3.1998    44.9354   998.7228  0.000e+00
      0.210    17.4884    17.4926    101.655  86.391438      0.298     9.5132     99.463    9.56452    9.55012 4.3610e+01     2.1509     1.9999    60.6553   998.7300  0.000e+00
      0.225    17.3760    17.3801    101.363  85.915907      0.320     9.5936    100.070    9.58684    9.57252 4.0422e+01     2.1360     1.7998    63.7661   998.7500  0.000e+00
      0.234    17.2967    17.3009    101.553  85.915929      0.332     9.6624    100.623    9.60261    9.58834 4.3079e+01     2.1911     1.7826    64.0415   998.7642  0.000e+00
      0.242    17.2616    17.2658    101.884  86.123996      0.345     9.7037    100.980    9.60961    9.59537 4.0017e+01     2.3332     1.7575    64.4442   998.7706  0.000e+00
      0.273    17.2801    17.2842    100.926  85.351218      0.388     9.7239    101.228    9.60594    9.59169 3.9599e+01     2.3883     1.7387    64.7477   998.7671  0.000e+00
      0.315    17.3225    17.3266    100.298  84.905389      0.448     9.7254    101.333    9.59751    9.58323 3.7165e+01     2.3947     1.7409    64.7122   998.7596  0.000e+00
      0.375    17.3697    17.3738     99.976  84.727052      0.533     9.7293    101.472    9.58813    9.57381 3.4919e+01     2.4074     1.7358    64.7951   998.7513  0.000e+00
      0.417    17.4110    17.4152     99.948  84.786483      0.593     9.7261    101.526    9.57991    9.56556 3.4456e+01     2.3692     1.7312    64.8691   998.7442  0.000e+00
      0.426    17.4519    17.4561     99.642  84.608148      0.606     9.7014    101.354    9.57181    9.55744 3.4774e+01     2.4053     1.7573    64.4472   998.7368  0.000e+00
      0.431    17.4951    17.4993     99.471  84.548696      0.614     9.8365    102.857    9.56326    9.54885 3.4479e+01     2.4561     1.7204    65.0438   998.7290  0.000e+00
      0.429    17.5266    17.5308     99.292  84.459527      0.610     9.9977    104.611    9.55704    9.54261 3.4464e+01     2.4031     1.7223    65.0128   998.7233  0.000e+00
      0.412    17.5435    17.5477     99.183  84.400082      0.586    10.0022    104.694    9.55369    9.53925 3.4306e+01     2.3650     1.7217    65.0231   998.7201  0.000e+00
      0.400    17.5576    17.5618     99.150  84.400078      0.569     9.8112    102.725    9.55090    9.53645 3.4866e+01     2.3968     1.7137    65.1534   998.7175  0.000e+00
      0.406    17.5575    17.5618     99.220  84.459518      0.578     9.4979     99.445    9.55092    9.53647 3.4298e+01     2.4095     1.7405    64.7181   998.7176  0.000e+00
      0.419    17.5503    17.5545     99.097  84.340640      0.597     9.0587     94.832    9.55236    9.53791 3.3054e+01     2.5218     1.7321    64.8543   998.7189  0.000e+00
      0.432    17.5498    17.5541     99.028  84.281200      0.615     8.5532     89.540    9.55244    9.53800 3.2587e+01     2.5303     1.7319    64.8573   998.7190  0.000e+00
      0.445    17.5439    17.5481     98.972  84.221762      0.634     8.0528     84.290    9.55361    9.53917 3.3814e+01     2.4879     1.7324    64.8499   998.7201  0.000e+00
      0.450    17.5278    17.5321     99.010  84.221767      0.640     7.5635     79.142    9.55679    9.54236 3.3279e+01     2.4498     1.7380    64.7581   998.7231  0.000e+00
      0.454    17.5171    17.5213     98.790  84.013732      0.646     7.1794     75.107    9.55893    9.54451 3.4306e+01     2.4222     1.7280    64.9210   998.7249  0.000e+00
      0.459    17.5248    17.5290     98.772  84.013730      0.652     6.9270     72.477    9.55741    9.54298 3.2211e+01     2.4540     1.7359    64.7921   998.7236  0.000e+00
      0.461    17.5347    17.5389     98.749  84.013727      0.655     6.7880     71.038    9.55545    9.54101 3.3351e+01     2.4010     1.7079    65.2482   998.7218  0.000e+00
      0.464    17.5475    17.5517     98.719  84.013724      0.660     6.6972     70.106    9.55291    9.53847 3.3733e+01     2.4540     1.7316    64.8617   998.7195  0.000e+00
      0.461    17.5618    17.5660     98.616  83.954281      0.655     6.6527     69.661    9.55009    9.53563 3.3578e+01     2.4879     1.7244    64.9787   998.7169  0.000e+00
      0.463    17.5744    17.5786     98.518  83.894839      0.658     6.6135     69.269    9.54760    9.53314 3.4119e+01     2.5112     1.7193    65.0616   998.7146  0.000e+00
      0.467    17.5861    17.5903     98.560  83.954275      0.665     6.5758     68.891    9.54530    9.53083 3.4096e+01     2.5515     1.7201    65.0498   998.7125  0.000e+00
      0.472    17.5943    17.5985     98.472  83.894834      0.671     6.5439     68.568    9.54368    9.52921 3.3748e+01     2.5515     1.7061    65.2778   998.7110  0.000e+00
      0.475    17.6001    17.6043     98.388  83.835394      0.675     6.5014     68.131    9.54255    9.52807 3.3785e+01     2.5028     1.7200    65.0513   998.7100  0.000e+00
      0.485    17.6022    17.6064     98.314  83.775955      0.689     6.4659     67.761    9.54213    9.52765 3.3836e+01     2.5155     1.7240    64.9861   998.7096  0.000e+00
      0.490    17.6049    17.6092     98.307  83.775954      0.697     6.4224     67.309    9.54159    9.52711 3.3785e+01     2.6702     1.7193    65.0631   998.7091  0.000e+00
      0.492    17.6081    17.6123     98.300  83.775953      0.700     6.3863     66.936    9.54097    9.52648 3.4156e+01     2.6469     1.7337    64.8292   998.7086  0.000e+00
      0.487    17.6102    17.6144     98.295  83.775953      0.692     6.3562     66.623    9.54056    9.52607 3.4022e+01     2.6427     1.7347    64.8129   998.7082  0.000e+00
      0.482    17.6160    17.6202     98.352  83.835389      0.686     6.3327     66.385    9.53941    9.52492 3.4668e+01     2.7105     1.7231    65.0009   998.7071  0.000e+00
      0.480    17.6226    17.6268     98.336  83.835387      0.683     6.3175     66.235    9.53811    9.52361 3.4532e+01     2.6914     1.7363    64.7862   998.7059  0.000e+00
      0.479    17.6250    17.6293     98.331  83.835387      0.682     6.3196     66.260    9.53763    9.52313 3.4714e+01     2.5473     1.7248    64.9728   998.7055  0.000e+00
      0.484    17.6226    17.6268     98.267  83.775949      0.688     6.3258     66.322    9.53811    9.52361 3.4471e+01     2.5282     1.7296    64.8943   998.7059  0.000e+00
      0.481    17.6150    17.6192     98.284  83.775951      0.685     6.3422     66.483    9.53961    9.52512 3.5019e+01     2.5494     1.7298    64.8913   998.7073  0.000e+00
      0.482    17.6079    17.6121     98.161  83.657077      0.686     6.3625     66.685    9.54102    9.52653 3.5080e+01     2.5515     1.7266    64.9432   998.7085  0.000e+00
      0.481    17.6077    17.6119     98.162  83.657077      0.685     6.3712     66.776    9.54105    9.52657 3.5149e+01     2.4752     1.7219    65.0202   998.7085  0.000e+00
      0.477    17.6113    17.6155     98.223  83.716514      0.678     6.3628     66.693    9.54034    9.52585 3.5481e+01     2.4455     1.7213    65.0305   998.7079  0.000e+00
      0.474    17.6158    17.6201     98.143  83.657075      0.674     6.3451     66.514    9.53945    9.52496 3.5450e+01     2.5007     1.7229    65.0039   998.7070  0.000e+00
      0.469    17.6213    17.6256     98.200  83.716511      0.668     6.3077     66.130    9.53836    9.52387 3.5684e+01     2.4307     1.7231    65.0009   998.7060  0.000e+00
      0.469    17.6284    17.6326     98.253  83.775947      0.668     6.2625     65.665    9.53698    9.52247 3.5652e+01     2.4074     1.7132    65.1608   998.7048  0.000e+00
      0.477    17.6331    17.6373     98.242  83.775946      0.678     6.2238     65.266    9.53605    9.52154 3.5265e+01     2.3650     1.7090    65.2304   998.7040  0.000e+00
      0.487    17.6339    17.6381     98.241  83.775946      0.692     6.2034     65.053    9.53589    9.52139 3.5645e+01     2.6088     1.7242    64.9831   998.7039  0.000e+00
      0.497    17.6281    17.6323     98.115  83.657072      0.706     6.1855     64.858    9.53703    9.52253 3.5188e+01     2.6236     1.7192    65.0646   998.7049  0.000e+00
      0.495    17.5965    17.6008     98.083  83.567923      0.705     6.1860     64.820    9.54325    9.52877 3.5512e+01     2.7614     1.7211    65.0335   998.7106  0.000e+00
      0.487    17.5546    17.5588     98.179  83.567935      0.692     6.2069     64.983    9.55152    9.53707 3.5746e+01     2.8695     1.7253    64.9654   998.7181  0.000e+00
      0.475    17.5414    17.5456     98.210  83.567938      0.675     6.1838     64.724    9.55414    9.53970 3.5809e+01     2.8674     1.7266    64.9432   998.7205  0.000e+00
      0.473    17.5552    17.5594     98.352  83.716529      0.672     6.1700     64.598    9.55140    9.53695 3.5334e+01     2.8335     1.7192    65.0646   998.7180  0.000e+00
      0.486    17.5741    17.5783     98.518  83.894839      0.691     6.1423     64.333    9.54767    9.53321 3.5218e+01     2.7550     1.7204    65.0438   998.7147  0.000e+00
      0.500    17.5759    17.5801     98.444  83.835400      0.711     6.1135     64.034    9.54732    9.53286 3.4570e+01     2.7678     1.7232    64.9994   998.7145  0.000e+00
      0.503    17.5480    17.5523     98.264  83.627374      0.716     6.0963     63.816    9.55282    9.53838 3.5026e+01     2.7254     1.7198    65.0542   998.7194  0.000e+00
      0.495    17.5553    17.5595     98.248  83.627372      0.705     6.0921     63.782    9.55138    9.53693 3.5887e+01     2.7254     1.7124    65.1741   998.7181  0.000e+00
      0.489    17.5786    17.5828     98.054  83.508491      0.695     6.0813     63.700    9.54679    9.53232 3.6369e+01     2.7360     1.7359    64.7921   998.7138  0.000e+00
      0.484    17.5823    17.5865     98.185  83.627365      0.688     6.0842     63.735    9.54606    9.53159 3.5567e+01     2.6745     1.7040    65.3118   998.7131  0.000e+00
      0.477    17.5820    17.5862     98.186  83.627365      0.678     6.1032     63.934    9.54613    9.53166 3.5582e+01     2.7254     1.7171    65.0986   998.7132  0.000e+00
      0.477    17.5900    17.5942     98.342  83.775958      0.678     6.1069     63.983    9.54453    9.53006 3.6084e+01     2.7784     1.7172    65.0971   998.7118  0.000e+00
      0.485    17.5988    17.6030     98.322  83.775956      0.689     6.1179     64.110    9.54281    9.52833 3.5629e+01     2.8208     1.7327    64.8440   998.7102  0.000e+00
      0.493    17.6041    17.6083     98.240  83.716516      0.702     6.1000     63.929    9.54176    9.52728 3.5265e+01     2.8589     1.7213    65.0305   998.7093  0.000e+00
      0.505    17.6009    17.6051     98.177  83.657079      0.719     6.0874     63.793    9.54239    9.52791 3.5218e+01     2.8314     1.7263    64.9491   998.7099  0.000e+00
      0.511    17.5846    17.5888     98.110  83.567927      0.726     6.0612     63.497    9.54560    9.53113 3.5520e+01     2.7678     1.7111    65.1964   998.7128  0.000e+00
      0.512    17.5662    17.5704     98.013  83.449057      0.728     6.0419     63.271    9.54924    9.53478 3.4851e+01     2.7296     1.7179    65.0853   998.7161  0.000e+00
      0.513    17.5534    17.5576     97.973  83.389623      0.729     6.0034     62.851    9.55178    9.53733 3.5234e+01     2.6300     1.7155    65.1238   998.7184  0.000e+00
      0.503    17.5464    17.5506     97.989  83.389625      0.716     5.9594     62.382    9.55315    9.53870 3.5234e+01     2.6702     1.7237    64.9905   998.7196  0.000e+00
      0.501    17.5450    17.5493     98.062  83.449063      0.712     5.9173     61.939    9.55342    9.53897 3.5295e+01     2.6257     1.7237    64.9905   998.7199  0.000e+00
      0.499    17.5485    17.5527     98.054  83.449062      0.709     5.8742     61.492    9.55274    9.53830 3.5203e+01     2.5007     1.7281    64.9195   998.7193  0.000e+00
      0.503    17.5512    17.5554     97.908  83.330187      0.716     5.8373     61.110    9.55220    9.53776 3.4889e+01     2.5070     1.7225    65.0098   998.7187  0.000e+00
      0.506    17.5499    17.5541     97.771  83.211313      0.720     5.7913     60.626    9.55246    9.53801 3.5396e+01     2.6702     1.7174    65.0927   998.7189  0.000e+00
      0.512    17.5438    17.5480     97.750  83.181597      0.728     5.7494     60.180    9.55368    9.53924 3.5295e+01     2.7063     1.7429    64.6796   998.7201  0.000e+00
      0.510    17.5375    17.5417     97.695  83.122162      0.725     5.7215     59.880    9.55491    9.54048 3.5567e+01     2.7105     1.7253    64.9654   998.7211  0.000e+00
      0.503    17.5331    17.5373     97.635  83.062727      0.716     5.6826     59.467    9.55580    9.54136 3.6005e+01     2.7254     1.7467    64.6189   998.7219  0.000e+00
      0.491    17.5282    17.5324     97.646  83.062728      0.699     5.6671     59.300    9.55676    9.54233 3.6021e+01     2.7360     1.7391    64.7418   998.7227  0.000e+00
      0.486    17.5228    17.5270     97.729  83.122166      0.691     5.6368     58.976    9.55782    9.54340 3.6641e+01     2.6766     1.7239    64.9876   998.7237  0.000e+00
      0.480    17.5220    17.5262     97.730  83.122166      0.683     5.6144     58.741    9.55797    9.54355 3.6377e+01     2.6639     1.7180    65.0838   998.7238  0.000e+00
      0.490    17.5231    17.5273     97.798  83.181602      0.697     5.5954     58.543    9.55775    9.54333 3.4980e+01     2.6618     1.7277    64.9254   998.7237  0.000e+00
      0.513    17.5241    17.5283     97.726  83.122166      0.729     5.5778     58.360    9.55757    9.54314 3.5134e+01     2.6872     1.7320    64.8558   998.7236  0.000e+00
      0.526    17.5234    17.5276     97.588  83.003294      0.748     5.5606     58.179    9.55771    9.54328 3.4471e+01     2.7381     1.7324    64.8499   998.7237  0.000e+00
      0.526    17.5207    17.5250     97.594  83.003294      0.748     5.5503     58.069    9.55823    9.54381 3.4828e+01     2.7042     1.7308    64.8751   998.7242  0.000e+00
      0.505    17.4535    17.4577     97.748  83.003312      0.719     5.5458     57.941    9.57154    9.55716 3.5466e+01     2.7232     1.7228    65.0054   998.7362  0.000e+00
      0.486    17.3028    17.3070     98.237  83.122225      0.691     5.5450     57.751    9.60148    9.58721 3.6385e+01     2.7381     1.7359    64.7936   998.7631  0.000e+00
      0.476    17.2238    17.2280     98.526  83.211401      0.677     5.5477     57.685    9.61725    9.60303 3.5218e+01     2.7656     1.7435    64.6692   998.7771  0.000e+00
      0.485    17.2147    17.2188     98.759  83.389715      0.689     5.5391     57.584    9.61907    9.60486 3.4805e+01     2.8165     1.7322    64.8528   998.7788  0.000e+00
      0.502    17.2535    17.2576     98.528  83.270830      0.714     5.5438     57.680    9.61132    9.59708 3.4820e+01     2.7593     1.7376    64.7655   998.7720  0.000e+00
      0.514    17.2716    17.2758     98.380  83.181670      0.731     5.5533     57.801    9.60770    9.59345 3.3881e+01     2.6342     1.7380    64.7581   998.7688  0.000e+00
      0.515    17.3118    17.3159     98.286  83.181660      0.733     5.5762     58.088    9.59970    9.58542 3.4866e+01     2.5303     1.7292    64.9017   998.7617  0.000e+00
      0.508    17.2375    17.2416     98.495  83.211398      0.723     5.6293     58.550    9.61452    9.60030 3.4298e+01     2.5939     1.7347    64.8129   998.7748  0.000e+00
      0.497    17.1488    17.1529     98.772  83.270859      0.706     5.7065     59.243    9.63226    9.61810 3.5088e+01     2.4943     1.7244    64.9802   998.7905  0.000e+00
      0.486    17.0887    17.0928     99.055  83.389749      0.691     5.7936     60.073    9.64431    9.63019 3.5334e+01     2.4731     1.7133    65.1593   998.8010  0.000e+00
      0.492    17.0851    17.0892     98.992  83.330313      0.700     5.8719     60.880    9.64504    9.63092 3.4752e+01     2.4858     1.7279    64.9224   998.8017  0.000e+00
      0.500    17.1225    17.1267     98.834  83.270866      0.711     5.9437     61.673    9.63752    9.62338 3.4494e+01     2.5155     1.7278    64.9239   998.7951  0.000e+00
      0.506    17.1404    17.1446     98.792  83.270861      0.720     5.9979     62.258    9.63393    9.61978 3.4096e+01     2.6109     1.7530    64.5167   998.7920  0.000e+00
      0.512    17.1607    17.1648     98.674  83.211419      0.728     6.0237     62.552    9.62987    9.61570 3.4858e+01     2.6194     1.7244    64.9802   998.7884  0.000e+00
      0.507    17.1305    17.1346     98.745  83.211427      0.722     6.0487     62.773    9.63593    9.62178 3.4298e+01     2.4837     1.7198    65.0542   998.7937  0.000e+00
      0.498    17.0634    17.0675     98.867  83.181727      0.708     6.0550     62.750    9.64941    9.63531 3.5295e+01     2.5664     1.7091    65.2289   998.8055  0.000e+00
      0.492    17.0422    17.0462     99.023  83.270887      0.700     6.0400     62.567    9.65368    9.63959 3.4927e+01     2.4371     1.7055    65.2867   998.8092  0.000e+00
      0.492    17.0277    17.0318     99.057  83.270891      0.700     6.0261     62.404    9.65659    9.64251 3.4767e+01     2.3713     1.7133    65.1593   998.8117  0.000e+00
      0.500    17.0256    17.0297     99.062  83.270892      0.711     6.0198     62.337    9.65701    9.64294 3.3896e+01     2.4816     1.7131    65.1638   998.8121  0.000e+00
      0.504    17.0258    17.0299     98.991  83.211455      0.717     5.9934     62.063    9.65697    9.64289 3.3955e+01     2.5049     1.7464    64.6233   998.8121  0.000e+00
      0.511    17.0204    17.0244     99.004  83.211457      0.726     5.9754     61.870    9.65807    9.64399 3.3851e+01     2.4561     1.7215    65.0261   998.8131  0.000e+00
      0.517    17.0224    17.0265     98.964  83.181738      0.736     5.9569     61.681    9.65766    9.64359 3.4119e+01     2.4773     1.7020    65.3444   998.8127  0.000e+00
      0.522    17.0192    17.0233     98.971  83.181739      0.742     5.9414     61.516    9.65830    9.64423 3.3896e+01     2.3756     1.7039    65.3133   998.8133  0.000e+00
      0.527    16.9982    17.0023     98.950  83.122308      0.749     5.9177     61.244    9.66254    9.64848 3.3873e+01     2.2908     1.7138    65.1519   998.8170  0.000e+00
      0.526    16.9810    16.9851     99.061  83.181749      0.748     5.9189     61.235    9.66599    9.65195 3.3564e+01     2.2781     1.7186    65.0735   998.8200  0.000e+00
      0.524    16.9741    16.9781     98.936  83.062878      0.745     5.8997     61.027    9.66740    9.65336 3.4156e+01     2.2251     1.7182    65.0809   998.8211  0.000e+00
      0.520    16.9715    16.9755     98.942  83.062879      0.740     5.8941     60.965    9.66793    9.65389 3.3792e+01     2.2314     1.6923    65.5028   998.8216  0.000e+00
      0.520    16.9761    16.9802     99.002  83.122314      0.740     5.8923     60.953    9.66700    9.65295 3.4179e+01     2.3289     1.7178    65.0868   998.8208  0.000e+00
      0.523    16.9862    16.9902     98.907  83.062875      0.743     5.8943     60.987    9.66497    9.65092 3.3586e+01     2.2929     1.7184    65.0764   998.8190  0.000e+00
      0.519    16.9905    16.9946     98.897  83.062874      0.739     5.8859     60.905    9.66408    9.65003 3.3977e+01     2.2229     1.7053    65.2911   998.8182  0.000e+00
      0.513    16.9834    16.9875     98.914  83.062875      0.729     5.8772     60.805    9.66552    9.65148 3.4074e+01     2.1911     1.7107    65.2023   998.8195  0.000e+00
      0.508    16.9725    16.9765     98.940  83.062878      0.723     5.8601     60.615    9.66773    9.65369 3.4828e+01     2.3141     1.7132    65.1623   998.8213  0.000e+00
      0.506    16.9673    16.9713     98.952  83.062880      0.720     5.8409     60.410    9.66878    9.65474 3.4562e+01     2.2526     1.7036    65.3178   998.8222  0.000e+00
      0.507    16.9708    16.9749     98.944  83.062879      0.722     5.8159     60.155    9.66807    9.65403 3.3896e+01     2.3374     1.7059    65.2807   998.8216  0.000e+00
      0.515    16.9804    16.9845     98.921  83.062876      0.732     5.7917     59.917    9.66612    9.65207 3.3888e+01     2.3692     1.7099    65.2156   998.8200  0.000e+00
      0.516    16.9864    16.9905     98.836  83.003438      0.734     5.7684     59.684    9.66492    9.65087 3.3279e+01     2.3650     1.7345    64.8158   998.8189  0.000e+00
      0.515    16.9824    16.9865     98.916  83.062876      0.733     5.7307     59.289    9.66573    9.65168 3.3888e+01     2.3607     1.7237    64.9905   998.8196  0.000e+00
      0.511    16.9745    16.9786     98.864  83.003442      0.726     5.7009     58.971    9.66732    9.65328 3.3814e+01     2.3099     1.7051    65.2941   998.8210  0.000e+00
      0.506    16.9670    16.9711     98.882  83.003444      0.720     5.6696     58.638    9.66883    9.65479 3.4224e+01     2.3544     1.7110    65.1978   998.8223  0.000e+00
      0.505    16.9645    16.9686     98.958  83.062880      0.719     5.6487     58.419    9.66934    9.65530 3.3925e+01     2.3247     1.7243    64.9817   998.8227  0.000e+00
      0.510    16.9658    16.9698     98.885  83.003444      0.725     5.6212     58.136    9.66908    9.65505 3.3703e+01     2.3629     1.7264    64.9476   998.8225  0.000e+00
      0.514    16.9686    16.9727     98.878  83.003443      0.731     5.5962     57.881    9.66851    9.65447 3.3645e+01     2.5070     1.7153    65.1268   998.8220  0.000e+00
      0.513    16.9690    16.9731     98.877  83.003443      0.729     5.5718     57.629    9.66842    9.65439 3.3498e+01     2.7211     1.7047    65.3000   998.8219  0.000e+00
      0.512    16.9641    16.9681     98.889  83.003444      0.728     5.5465     57.361    9.66942    9.65539 3.3483e+01     2.8250     1.7130    65.1653   998.8228  0.000e+00
      0.505    16.9595    16.9636     98.828  82.944010      0.719     5.5309     57.195    9.67034    9.65631 3.3829e+01     2.8844     1.7295    64.8973   998.8235  0.000e+00
      0.501    16.9555    16.9596     98.909  83.003447      0.712     5.5135     57.009    9.67115    9.65712 3.4224e+01     2.8208     1.7162    65.1134   998.8242  0.000e+00
      0.501    16.9527    16.9568     98.845  82.944011      0.712     5.4944     56.809    9.67171    9.65769 3.3770e+01     2.7784     1.7078    65.2497   998.8247  0.000e+00
      0.504    16.9497    16.9538     98.852  82.944012      0.717     5.4634     56.485    9.67232    9.65830 3.4767e+01     2.6724     1.7078    65.2497   998.8252  0.000e+00
      0.505    16.9469    16.9509     98.858  82.944013      0.719     5.4498     56.341    9.67290    9.65888 3.4111e+01     2.6978     1.7098    65.2171   998.8257  0.000e+00
      0.511    16.9423    16.9463     98.798  82.884578      0.726     5.4215     56.043    9.67383    9.65981 3.3859e+01     2.7063     1.7206    65.0409   998.8265  0.000e+00
      0.508    16.9374    16.9415     98.881  82.944016      0.723     5.4107     55.926    9.67481    9.66080 3.4209e+01     2.7105     1.7304    64.8825   998.8274  0.000e+00
      0.506    16.9334    16.9374     98.819  82.884581      0.720     5.3864     55.670    9.67563    9.66161 3.3918e+01     2.7211     1.7282    64.9180   998.8281  0.000e+00
      0.505    16.9262    16.9303     98.907  82.944019      0.719     5.3796     55.591    9.67707    9.66306 3.4096e+01     2.6936     1.7292    64.9017   998.8293  0.000e+00
      0.505    16.9200    16.9241     98.993  83.003456      0.719     5.3660     55.443    9.67832    9.66431 3.3888e+01     2.5982     1.7412    64.7077   998.8304  0.000e+00
      0.504    16.9148    16.9189     98.863  82.884586      0.717     5.3510     55.282    9.67937    9.66537 3.3674e+01     2.5727     1.7191    65.0661   998.8313  0.000e+00
      0.506    16.9096    16.9136     98.875  82.884587      0.720     5.3357     55.119    9.68044    9.66644 3.3344e+01     2.6681     1.7116    65.1875   998.8322  0.000e+00
      0.504    16.9029    16.9070     98.891  82.884589      0.717     5.3183     54.931    9.68178    9.66779 3.3962e+01     2.6702     1.7130    65.1653   998.8333  0.000e+00
      0.504    16.8959    16.9000     98.837  82.825155      0.717     5.3036     54.771    9.68320    9.66922 3.3681e+01     2.6300     1.7126    65.1712   998.8345  0.000e+00
      0.504    16.8887    16.8928     98.925  82.884593      0.717     5.2880     54.602    9.68466    9.67068 3.3807e+01     2.5324     1.7122    65.1786   998.8358  0.000e+00
      0.505    16.8823    16.8863     98.869  82.825159      0.719     5.2654     54.361    9.68597    9.67199 3.3836e+01     2.5409     1.7260    64.9535   998.8369  0.000e+00
      0.505    16.8771    16.8811     98.881  82.825160      0.719     5.2455     54.150    9.68702    9.67304 3.4238e+01     2.5388     1.7186    65.0735   998.8378  0.000e+00
      0.505    16.8731    16.8772     98.962  82.884597      0.719     5.2403     54.092    9.68781    9.67384 3.4022e+01     2.4922     1.7253    64.9654   998.8385  0.000e+00
      0.506    16.8695    16.8736     98.970  82.884598      0.720     5.2152     53.828    9.68854    9.67457 3.4052e+01     2.4010     1.7300    64.8884   998.8391  0.000e+00
      0.506    16.8662    16.8702     98.978  82.884599      0.720     5.2013     53.681    9.68922    9.67525 3.3645e+01     2.5155     1.7098    65.2171   998.8397  0.000e+00
      0.504    16.8633    16.8673     98.914  82.825164      0.717     5.1876     53.536    9.68981    9.67585 3.3829e+01     2.5642     1.6998    65.3799   998.8402  0.000e+00
      0.504    16.8605    16.8646     98.920  82.825165      0.717     5.1693     53.345    9.69037    9.67641 3.4156e+01     2.5664     1.7205    65.0424   998.8407  0.000e+00
      0.502    16.8571    16.8611     98.858  82.765730      0.714     5.1534     53.177    9.69107    9.67711 3.4156e+01     2.5112     1.6880    65.5739   998.8412  0.000e+00
      0.503    16.8529    16.8569     98.938  82.825167      0.716     5.1386     53.020    9.69191    9.67796 3.4082e+01     2.5091     1.6962    65.4392   998.8420  0.000e+00
      0.505    16.8506    16.8546     98.944  82.825167      0.719     5.1236     52.862    9.69239    9.67843 3.4029e+01     2.4858     1.7186    65.0735   998.8424  0.000e+00
      0.506    16.8495    16.8535     98.946  82.825168      0.720     5.1127     52.748    9.69261    9.67865 3.3881e+01     2.6427     1.7107    65.2023   998.8426  0.000e+00
      0.505    16.8471    16.8512     98.952  82.825168      0.719     5.0941     52.554    9.69308    9.67913 3.3799e+01     2.5091     1.7013    65.3563   998.8430  0.000e+00
      0.505    16.8447    16.8487     98.958  82.825169      0.719     5.0852     52.459    9.69357    9.67962 3.4052e+01     2.4201     1.6935    65.4836   998.8434  0.000e+00
      0.503    16.8431    16.8472     98.962  82.825169      0.716     5.0698     52.299    9.69390    9.67995 3.3896e+01     2.4180     1.6962    65.4392   998.8437  0.000e+00
      0.500    16.8409    16.8450     98.967  82.825170      0.711     5.0563     52.157    9.69434    9.68039 3.3970e+01     2.3904     1.7062    65.2763   998.8440  0.000e+00
      0.495    16.8368    16.8409     98.905  82.765736      0.705     5.0467     52.053    9.69517    9.68122 3.4037e+01     2.4180     1.7007    65.3651   998.8447  0.000e+00
      0.497    16.8339    16.8380     98.983  82.825172      0.706     5.0364     51.944    9.69576    9.68182 3.4052e+01     2.3968     1.7065    65.2704   998.8452  0.000e+00
      0.497    16.8335    16.8375     98.984  82.825172      0.706     5.0180     51.754    9.69585    9.68190 3.4156e+01     2.2823     1.7091    65.2289   998.8453  0.000e+00
      0.497    16.8332    16.8372     98.914  82.765737      0.706     5.0097     51.668    9.69592    9.68197 3.4186e+01     2.2929     1.7053    65.2911   998.8453  0.000e+00
      0.501    16.8312    16.8352     98.990  82.825173      0.712     5.0043     51.611    9.69632    9.68238 3.3622e+01     2.3099     1.6896    65.5473   998.8457  0.000e+00
      0.512    16.8292    16.8333     98.994  82.825173      0.728     4.9904     51.465    9.69671    9.68277 3.3373e+01     2.2865     1.6980    65.4096   998.8461  0.000e+00
      0.530    16.8309    16.8350     98.990  82.825173      0.754     4.9819     51.379    9.69637    9.68243 3.2837e+01     2.2738     1.7295    64.8973   998.8459  0.000e+00
      0.545    16.8332    16.8372     99.056  82.884608      0.776     4.9815     51.377    9.69591    9.68197 3.2423e+01     2.3141     1.7010    65.3607   998.8456  0.000e+00
      0.558    16.8342    16.8382     98.983  82.825172      0.794     4.9801     51.364    9.69571    9.68177 3.2544e+01     2.3671     1.7223    65.0142   998.8455  0.000e+00
      0.558    16.8355    16.8396     99.051  82.884608      0.794     4.9796     51.361    9.69544    9.68149 3.2981e+01     2.3586     1.7067    65.2674   998.8452  0.000e+00
      0.555    16.8377    16.8417     99.116  82.944043      0.790     4.9729     51.293    9.69499    9.68105 3.3578e+01     2.2865     1.7010    65.3607   998.8449  0.000e+00
      0.552    16.8284    16.8324     99.138  82.944045      0.785     4.9691     51.244    9.69688    9.68294 3.3191e+01     2.3332     1.7056    65.2852   998.8465  0.000e+00
      0.547    16.8168    16.8208     99.024  82.825177      0.777     4.9631     51.170    9.69924    9.68530 3.3366e+01     2.3183     1.7177    65.0883   998.8484  0.000e+00
      0.558    16.8135    16.8175     99.245  83.003485      0.794     4.9564     51.098    9.69991    9.68598 3.2043e+01     2.3735     1.6768    65.7575   998.8491  0.000e+00
      0.611    16.8429    16.8469     99.637  83.389816      0.868     4.9512     51.075    9.69393    9.67998 3.1144e+01     2.4095     1.6898    65.5443   998.8444  0.000e+00
      0.651    16.9543    16.9583     99.160  83.211476      0.926     4.9400     51.078    9.67140    9.65737 3.1315e+01     2.3968     1.7000    65.3770   998.8252  0.000e+00
      0.659    17.1186    17.1227     98.737  83.181713      0.938     4.9688     51.553    9.63832    9.62418 3.0853e+01     2.3777     1.7131    65.1638   998.7965  0.000e+00
      0.658    17.2598    17.2640     98.337  83.122238      0.936     5.0744     52.803    9.61006    9.59582 3.0853e+01     2.3438     1.7019    65.3459   998.7715  0.000e+00
      0.652    17.2083    17.2125     98.387  83.062816      0.927     5.2809     54.893    9.62035    9.60614 3.1418e+01     2.3544     1.7193    65.0631   998.7806  0.000e+00
      0.644    17.0839    17.0880     98.678  83.062849      0.916     5.5502     57.543    9.64528    9.63117 3.1466e+01     2.3183     1.7155    65.1238   998.8025  0.000e+00
      0.640    16.9850    16.9891     98.910  83.062876      0.910     5.8288     60.307    9.66520    9.65115 3.1131e+01     2.3014     1.7011    65.3592   998.8198  0.000e+00
      0.641    16.9071    16.9111     99.023  83.003461      0.912     6.0583     62.580    9.68094    9.66695 3.1036e+01     2.3056     1.7033    65.3237   998.8333  0.000e+00
      0.644    16.8850    16.8891     99.217  83.122339      0.916     6.2359     64.385    9.68540    9.67142 3.0705e+01     2.5515     1.7029    65.3296   998.8372  0.000e+00
      0.650    16.8873    16.8913     99.212  83.122339      0.924     6.3372     65.433    9.68494    9.67096 3.0491e+01     2.5388     1.6974    65.4199   998.8368  0.000e+00
      0.653    16.8932    16.8973     99.269  83.181774      0.929     6.3650     65.729    9.68373    9.66975 3.0638e+01     2.5388     1.7097    65.2186   998.8358  0.000e+00
      0.655    16.8916    16.8957     99.202  83.122338      0.932     6.3263     65.327    9.68406    9.67007 3.0491e+01     2.4137     1.7139    65.1505   998.8361  0.000e+00
      0.652    16.8771    16.8811     99.165  83.062905      0.927     6.2459     64.478    9.68701    9.67303 3.0344e+01     2.3205     1.7084    65.2393   998.8386  0.000e+00
      0.646    16.8675    16.8716     99.188  83.062908      0.919     6.1522     63.497    9.68894    9.67497 3.0431e+01     2.4583     1.7022    65.3415   998.8402  0.000e+00
      0.646    16.8628    16.8668     99.199  83.062909      0.919     6.0680     62.622    9.68991    9.67594 3.0218e+01     2.4689     1.7009    65.3622   998.8410  0.000e+00
      0.653    16.8617    16.8657     99.273  83.122346      0.929     5.9897     61.812    9.69012    9.67616 3.0377e+01     2.5282     1.7117    65.1860   998.8412  0.000e+00
      0.662    16.8680    16.8720     99.258  83.122344      0.941     5.9260     61.163    9.68885    9.67489 3.0146e+01     2.5515     1.7012    65.3577   998.8402  0.000e+00
      0.666    16.8769    16.8810     99.307  83.181778      0.947     5.8650     60.545    9.68704    9.67306 3.0338e+01     2.5600     1.7007    65.3651   998.8387  0.000e+00
      0.663    16.8802    16.8842     99.229  83.122341      0.943     5.8218     60.103    9.68638    9.67240 3.0205e+01     2.6342     1.7172    65.0957   998.8381  0.000e+00
      0.655    16.8749    16.8789     99.170  83.062906      0.932     5.7844     59.710    9.68745    9.67348 3.0584e+01     2.6003     1.7120    65.1815   998.8389  0.000e+00
      0.651    16.8638    16.8678     99.197  83.062909      0.926     5.7517     59.359    9.68970    9.67574 3.0557e+01     2.5685     1.7205    65.0424   998.8409  0.000e+00
      0.649    16.8511    16.8552     99.227  83.062912      0.923     5.7215     59.031    9.69226    9.67831 3.0752e+01     2.5430     1.7170    65.1001   998.8430  0.000e+00
      0.655    16.8463    16.8503     99.380  83.181787      0.932     5.6917     58.719    9.69324    9.67929 3.0765e+01     2.5918     1.6919    65.5088   998.8439  0.000e+00
      0.657    16.8487    16.8528     99.374  83.181786      0.935     5.6648     58.444    9.69275    9.67880 3.0920e+01     2.5706     1.7152    65.1282   998.8435  0.000e+00
      0.659    16.8524    16.8564     99.295  83.122348      0.938     5.6361     58.152    9.69201    9.67805 3.0417e+01     2.5515     1.7363    64.7862   998.8429  0.000e+00
      0.656    16.8524    16.8564     99.295  83.122348      0.933     5.6217     58.003    9.69201    9.67805 3.0792e+01     2.4646     1.7115    65.1889   998.8429  0.000e+00
      0.653    16.8476    16.8517     99.235  83.062913      0.929     5.6000     57.774    9.69297    9.67902 3.0484e+01     2.3968     1.7047    65.3000   998.8437  0.000e+00
      0.652    16.8431    16.8472     99.246  83.062914      0.927     5.5818     57.580    9.69389    9.67994 3.0397e+01     2.4413     1.7073    65.2571   998.8444  0.000e+00
      0.649    16.8405    16.8446     99.252  83.062915      0.923     5.5646     57.400    9.69441    9.68047 3.0738e+01     2.3544     1.7126    65.1712   998.8449  0.000e+00
      0.646    16.8383    16.8423     99.257  83.062916      0.919     5.5527     57.275    9.69487    9.68093 3.0564e+01     2.3925     1.7017    65.3489   998.8452  0.000e+00
      0.642    16.8351    16.8391     99.265  83.062916      0.913     5.5382     57.121    9.69552    9.68157 3.0725e+01     2.6215     1.6964    65.4362   998.8458  0.000e+00
      0.639    16.8307    16.8347     99.275  83.062918      0.909     5.5152     56.879    9.69641    9.68247 3.0577e+01     2.6342     1.6991    65.3918   998.8465  0.000e+00
      0.640    16.8266    16.8306     99.356  83.122355      0.910     5.4914     56.628    9.69724    9.68330 3.0564e+01     2.5833     1.7198    65.0542   998.8473  0.000e+00
      0.643    16.8243    16.8284     99.361  83.122356      0.915     5.4635     56.338    9.69770    9.68376 3.0738e+01     2.5112     1.7123    65.1756   998.8477  0.000e+00
      0.641    16.8235    16.8275     99.292  83.062920      0.912     5.4353     56.046    9.69787    9.68394 3.0311e+01     2.4243     1.7165    65.1075   998.8478  0.000e+00
      0.638    16.8225    16.8265     99.366  83.122356      0.907     5.4136     55.821    9.69807    9.68414 3.0785e+01     2.6363     1.7171    65.0986   998.8480  0.000e+00
      0.644    16.8208    16.8248     99.370  83.122357      0.916     5.3870     55.545    9.69841    9.68448 3.0718e+01     2.6660     1.7377    64.7640   998.8483  0.000e+00
      0.652    16.8210    16.8250     99.440  83.181793      0.927     5.3681     55.350    9.69838    9.68444 3.0597e+01     2.6194     1.7159    65.1179   998.8483  0.000e+00
      0.658    16.8252    16.8293     99.430  83.181792      0.936     5.3561     55.232    9.69751    9.68357 3.0577e+01     2.9713     1.7068    65.2659   998.8476  0.000e+00
      0.659    16.8298    16.8339     99.348  83.122354      0.938     5.3378     55.049    9.69658    9.68264 3.0464e+01     2.9437     1.7229    65.0039   998.8468  0.000e+00
      0.653    16.8307    16.8348     99.346  83.122354      0.929     5.3380     55.051    9.69640    9.68245 3.0887e+01     2.8653     1.7298    64.8913   998.8466  0.000e+00
      0.648    16.8294    16.8334     99.349  83.122354      0.921     5.3267     54.934    9.69667    9.68273 3.0826e+01     2.7890     1.7405    64.7181   998.8468  0.000e+00
      0.646    16.8299    16.8340     99.419  83.181791      0.919     5.3238     54.904    9.69656    9.68262 3.0571e+01     2.6978     1.7152    65.1282   998.8467  0.000e+00
      0.649    16.8306    16.8346     99.417  83.181791      0.923     5.3099     54.761    9.69643    9.68249 3.0900e+01     2.7169     1.7241    64.9846   998.8466  0.000e+00
      0.653    16.8311    16.8351     99.416  83.181791      0.929     5.3013     54.673    9.69633    9.68238 3.0658e+01     2.7190     1.7239    64.9876   998.8466  0.000e+00
      0.656    16.8327    16.8367     99.412  83.181790      0.933     5.2881     54.539    9.69600    9.68206 3.1002e+01     2.7890     1.7176    65.0897   998.8463  0.000e+00
      0.656    16.8338    16.8379     99.339  83.122353      0.933     5.2676     54.329    9.69577    9.68182 3.0577e+01     2.7720     1.7223    65.0142   998.8461  0.000e+00
      0.651    16.8333    16.8373     99.340  83.122353      0.926     5.2690     54.342    9.69589    9.68194 3.0988e+01     2.7466     1.7227    65.0068   998.8462  0.000e+00
      0.650    16.8316    16.8356     99.344  83.122354      0.924     5.2530     54.176    9.69623    9.68228 3.1267e+01     2.7381     1.7042    65.3089   998.8464  0.000e+00
      0.649    16.8310    16.8350     99.345  83.122354      0.923     5.2296     53.934    9.69634    9.68240 3.1206e+01     2.7020     1.7134    65.1579   998.8465  0.000e+00
      0.648    16.8298    16.8339     99.419  83.181791      0.921     5.2139     53.770    9.69658    9.68264 3.1090e+01     2.7635     1.7063    65.2733   998.8468  0.000e+00
      0.648    16.8278    16.8319     99.353  83.122355      0.921     5.1950     53.574    9.69699    9.68305 3.0819e+01     2.7381     1.7306    64.8780   998.8471  0.000e+00
      0.652    16.8264    16.8304     99.427  83.181792      0.927     5.1739     53.354    9.69728    9.68334 3.0812e+01     2.7338     1.7109    65.1993   998.8474  0.000e+00
      0.652    16.8255    16.8295     99.430  83.181792      0.927     5.1573     53.181    9.69746    9.68352 3.1172e+01     2.6066     1.6965    65.4347   998.8475  0.000e+00
      0.654    16.8243    16.8284     99.361  83.122356      0.930     5.1370     52.971    9.69770    9.68376 3.1070e+01     2.6215     1.7005    65.3696   998.8477  0.000e+00
      0.649    16.8227    16.8268     99.365  83.122356      0.923     5.1241     52.836    9.69802    9.68409 3.1487e+01     2.6618     1.6975    65.4184   998.8480  0.000e+00
      0.646    16.8223    16.8263     99.437  83.181793      0.919     5.1098     52.689    9.69811    9.68417 3.1501e+01     2.7126     1.6959    65.4436   998.8480  0.000e+00
      0.645    16.8215    16.8255     99.475  83.211512      0.918     5.0919     52.503    9.69827    9.68434 3.1618e+01     2.5982     1.6988    65.3962   998.8482  0.000e+00
      0.649    16.8193    16.8233     99.444  83.181794      0.923     5.0773     52.350    9.69872    9.68478 3.1446e+01     2.4985     1.7141    65.1475   998.8486  0.000e+00
      0.652    16.8181    16.8222     99.447  83.181794      0.927     5.0587     52.157    9.69895    9.68502 3.1267e+01     2.4837     1.7043    65.3074   998.8488  0.000e+00
      0.655    16.8183    16.8223     99.482  83.211512      0.932     5.0462     52.028    9.69892    9.68499 3.1076e+01     2.5049     1.6972    65.4229   998.8488  0.000e+00
      0.652    16.8174    16.8214     99.449  83.181794      0.927     5.0357     51.919    9.69911    9.68517 3.1002e+01     2.5218     1.7142    65.1445   998.8489  0.000e+00
      0.648    16.8165    16.8205     99.451  83.181795      0.921     5.0253     51.811    9.69929    9.68536 3.1508e+01     2.5515     1.7194    65.0601   998.8491  0.000e+00
      0.645    16.8167    16.8207     99.379  83.122358      0.918     5.0115     51.669    9.69924    9.68531 3.1597e+01     2.5791     1.7221    65.0172   998.8490  0.000e+00
      0.648    16.8164    16.8204     99.700  83.389824      0.921     5.0085     51.638    9.69930    9.68537 3.1556e+01     2.6702     1.7225    65.0098   998.8492  0.000e+00
      0.649    16.8697    16.8738    101.312  84.846075      0.923     5.0021     51.630    9.68844    9.67447 3.1398e+01     2.7572     1.7144    65.1416   998.8406  0.000e+00
      0.650    17.1826    17.1867    100.278  84.608224      0.924     4.9891     51.833    9.62545    9.61126 3.1446e+01     2.8632     1.7243    64.9817   998.7858  0.000e+00
      0.653    17.4515    17.4557     99.328  84.340669      0.929     5.1503     53.806    9.57189    9.55751 3.1254e+01     2.7932     1.7154    65.1253   998.7378  0.000e+00
      0.654    17.5923    17.5966     99.069  84.400070      0.930     5.5410     58.058    9.54406    9.52958 3.1295e+01     2.8844     1.7158    65.1194   998.7124  0.000e+00
      0.652    17.6617    17.6659     98.769  84.281171      0.927     6.0994     63.999    9.53040    9.51588 3.1556e+01     2.8568     1.7041    65.3104   998.6998  0.000e+00
      0.651    17.6917    17.6960     98.838  84.400043      0.926     6.7213     70.569    9.52450    9.50996 3.1452e+01     2.8844     1.7215    65.0261   998.6943  0.000e+00
      0.651    17.7061    17.7103     98.666  84.281159      0.926     7.3262     76.942    9.52168    9.50713 3.1535e+01     2.8080     1.7318    64.8588   998.6917  0.000e+00
      0.650    17.7181    17.7224     98.777  84.400036      0.924     7.8528     82.493    9.51932    9.50475 3.1743e+01     2.8123     1.7192    65.0646   998.6895  0.000e+00
      0.652    17.7261    17.7303     98.481  84.162275      0.927     8.2703     86.893    9.51777    9.50320 3.1459e+01     2.7805     1.7164    65.1090   998.6880  0.000e+00
      0.654    17.7302    17.7344     98.680  84.340592      0.930     8.5210     89.535    9.51695    9.50238 3.1501e+01     2.7996     1.7245    64.9772   998.6873  0.000e+00
      0.655    17.7327    17.7369     98.605  84.281152      0.932     8.6169     90.547    9.51646    9.50189 3.1418e+01     2.6936     1.7139    65.1505   998.6868  0.000e+00
      0.652    17.7345    17.7388     98.670  84.340591      0.927     8.5719     90.078    9.51611    9.50153 3.1604e+01     2.6914     1.7182    65.0794   998.6865  0.000e+00
      0.651    17.7347    17.7389     98.461  84.162272      0.926     8.4613     88.915    9.51608    9.50150 3.1254e+01     2.6872     1.7102    65.2097   998.6864  0.000e+00
      0.649    17.7345    17.7388     98.461  84.162272      0.923     8.3416     87.658    9.51611    9.50153 3.1673e+01     2.7720     1.7261    64.9520   998.6864  0.000e+00
      0.651    17.7343    17.7386     98.670  84.340591      0.926     8.2131     86.307    9.51614    9.50156 3.1917e+01     2.7423     1.7164    65.1090   998.6865  0.000e+00
      0.652    17.7343    17.7386     98.601  84.281151      0.927     8.0946     85.062    9.51614    9.50156 3.1480e+01     2.6957     1.7266    64.9432   998.6865  0.000e+00
      0.653    17.7334    17.7376     98.812  84.459472      0.929     7.9980     84.045    9.51632    9.50175 3.1778e+01     2.7614     1.7268    64.9402   998.6868  0.000e+00
      0.656    17.7328    17.7370     98.535  84.221712      0.933     7.9281     83.309    9.51645    9.50187 3.1501e+01     2.7974     1.7212    65.0320   998.6868  0.000e+00
      0.654    17.7338    17.7381     98.463  84.162272      0.930     7.8640     82.638    9.51625    9.50167 3.1590e+01     2.6215     1.7133    65.1593   998.6866  0.000e+00
      0.653    17.7342    17.7384     98.601  84.281151      0.929     7.8083     82.053    9.51618    9.50160 3.1618e+01     2.6745     1.7190    65.0675   998.6866  0.000e+00
      0.652    17.7345    17.7388     98.809  84.459471      0.927     7.7632     81.580    9.51610    9.50153 3.1729e+01     2.6342     1.7286    64.9106   998.6866  0.000e+00
      0.650    17.7346    17.7388     98.670  84.340591      0.924     7.7334     81.266    9.51609    9.50151 3.1757e+01     2.6575     1.7198    65.0542   998.6865  0.000e+00
      0.650    17.7361    17.7404     98.597  84.281151      0.924     7.7114     81.038    9.51579    9.50121 3.1778e+01     2.6893     1.7093    65.2260   998.6862  0.000e+00
      0.651    17.7368    17.7411     98.734  84.400031      0.926     7.7041     80.962    9.51565    9.50107 3.1549e+01     2.6999     1.7349    64.8084   998.6861  0.000e+00
      0.653    17.7370    17.7413     98.525  84.221711      0.929     7.6909     80.824    9.51562    9.50104 3.1708e+01     2.7169     1.7198    65.0542   998.6860  0.000e+00
      0.654    17.7385    17.7427     98.452  84.162271      0.930     7.6820     80.733    9.51534    9.50075 3.1549e+01     2.7148     1.7125    65.1727   998.6857  0.000e+00
      0.655    17.7392    17.7435     98.450  84.162271      0.932     7.6771     80.682    9.51518    9.50060 3.1549e+01     2.8165     1.7398    64.7300   998.6856  0.000e+00
      0.653    17.7386    17.7429     98.730  84.400030      0.929     7.6800     80.712    9.51529    9.50071 3.1680e+01     2.8292     1.7188    65.0705   998.6858  0.000e+00
      0.651    17.7380    17.7423     98.453  84.162271      0.926     7.6810     80.722    9.51542    9.50084 3.1771e+01     2.8971     1.7088    65.2334   998.6858  0.000e+00
      0.651    17.7392    17.7435     98.659  84.340590      0.926     7.6855     80.771    9.51518    9.50060 3.1632e+01     2.9204     1.7225    65.0098   998.6856  0.000e+00
      0.652    17.7404    17.7447     98.517  84.221710      0.927     7.6788     80.702    9.51494    9.50036 3.1708e+01     2.9437     1.7361    64.7892   998.6854  0.000e+00
      0.652    17.7400    17.7443     98.588  84.281150      0.927     7.6746     80.657    9.51503    9.50045 3.1336e+01     2.8801     1.7213    65.0290   998.6855  0.000e+00
      0.653    17.7394    17.7437     98.520  84.221710      0.929     7.6791     80.704    9.51515    9.50057 3.1418e+01     2.9183     1.7043    65.3074   998.6856  0.000e+00
      0.654    17.7396    17.7438     98.797  84.459470      0.930     7.6692     80.600    9.51511    9.50052 3.1694e+01     3.0285     1.7218    65.0216   998.6856  0.000e+00
      0.654    17.7398    17.7441     98.519  84.221710      0.930     7.6818     80.733    9.51506    9.50048 3.1528e+01     2.9713     1.7178    65.0868   998.6855  0.000e+00
      0.655    17.7394    17.7437     98.520  84.221710      0.932     7.6795     80.708    9.51515    9.50057 3.1473e+01     2.9373     1.7254    64.9624   998.6856  0.000e+00
      0.656    17.7385    17.7427     98.383  84.102832      0.933     7.6750     80.659    9.51534    9.50076 3.1833e+01     2.9310     1.7141    65.1475   998.6857  0.000e+00
      0.653    17.7388    17.7431     98.660  84.340590      0.929     7.6781     80.693    9.51526    9.50068 3.1590e+01     2.9564     1.7133    65.1593   998.6857  0.000e+00
      0.653    17.7379    17.7422     98.662  84.340590      0.929     7.6715     80.622    9.51543    9.50085 3.1784e+01     3.0221     1.7336    64.8306   998.6859  0.000e+00
      0.650    17.7368    17.7411     98.665  84.340591      0.924     7.6716     80.621    9.51565    9.50107 3.1480e+01     2.9925     1.7087    65.2348   998.6861  0.000e+00
      0.649    17.7354    17.7396     98.598  84.281151      0.923     7.6580     80.476    9.51594    9.50136 3.1501e+01     2.9903     1.7063    65.2733   998.6863  0.000e+00
      0.650    17.7326    17.7369     98.466  84.162273      0.924     7.6525     80.413    9.51648    9.50191 3.1680e+01     3.0603     1.7174    65.0927   998.6868  0.000e+00
      0.646    17.7315    17.7357     98.677  84.340592      0.919     7.6465     80.348    9.51670    9.50212 3.1446e+01     3.0942     1.7258    64.9565   998.6870  0.000e+00
      0.644    17.7307    17.7350     98.609  84.281152      0.916     7.6582     80.470    9.51685    9.50228 3.1254e+01     3.0539     1.7146    65.1386   998.6872  0.000e+00
      0.650    17.7302    17.7344     98.471  84.162273      0.924     7.6573     80.460    9.51696    9.50238 3.1446e+01     2.8992     1.7288    64.9076   998.6872  0.000e+00
      0.658    17.7289    17.7332     98.544  84.221713      0.936     7.6629     80.517    9.51721    9.50263 3.1459e+01     2.9034     1.7049    65.2970   998.6875  0.000e+00
      0.658    17.7283    17.7325     98.615  84.281153      0.936     7.6752     80.644    9.51733    9.50275 3.1042e+01     2.7847     1.7380    64.7596   998.6877  0.000e+00
      0.656    17.7306    17.7349     98.540  84.221713      0.933     7.6804     80.703    9.51687    9.50230 3.0907e+01     2.6851     1.7254    64.9624   998.6872  0.000e+00
      0.650    17.7332    17.7375     98.395  84.102833      0.924     7.6874     80.781    9.51637    9.50179 3.1729e+01     2.6808     1.7204    65.0438   998.6866  0.000e+00
      0.646    17.7326    17.7369     98.535  84.221712      0.919     7.6828     80.731    9.51648    9.50191 3.1694e+01     2.6596     1.7222    65.0157   998.6868  0.000e+00
      0.648    17.7304    17.7347     98.610  84.281152      0.921     7.6850     80.751    9.51690    9.50233 3.1680e+01     2.6660     1.7129    65.1667   998.6872  0.000e+00
      0.650    17.7279    17.7322     98.755  84.400033      0.924     7.6848     80.745    9.51739    9.50282 3.1715e+01     2.7042     1.7218    65.0216   998.6877  0.000e+00
      0.651    17.7254    17.7296     98.691  84.340594      0.926     7.6786     80.675    9.51790    9.50333 3.1577e+01     2.6448     1.7257    64.9580   998.6882  0.000e+00
      0.653    17.7270    17.7313     98.826  84.459473      0.929     7.6776     80.667    9.51757    9.50300 3.1764e+01     2.6448     1.7246    64.9757   998.6879  0.000e+00
      0.652    17.7282    17.7325     98.545  84.221713      0.927     7.6778     80.672    9.51734    9.50277 3.1521e+01     2.4837     1.7167    65.1046   998.6876  0.000e+00
      0.650    17.7300    17.7343     98.298  84.013676      0.924     7.6763     80.659    9.51700    9.50242 3.1736e+01     2.5960     1.7157    65.1208   998.6872  0.000e+00
      0.648    17.7314    17.7357     98.677  84.340592      0.921     7.6822     80.723    9.51672    9.50214 3.1549e+01     2.5982     1.7187    65.0720   998.6871  0.000e+00
      0.649    17.7315    17.7357     98.538  84.221713      0.923     7.6836     80.738    9.51670    9.50213 3.1308e+01     2.5918     1.7098    65.2171   998.6870  0.000e+00
      0.649    17.7304    17.7347     98.540  84.221713      0.923     7.6896     80.800    9.51690    9.50233 3.1653e+01     2.6427     1.7073    65.2571   998.6872  0.000e+00
      0.650    17.7308    17.7350     98.609  84.281152      0.924     7.6986     80.894    9.51684    9.50226 3.1743e+01     2.6639     1.7093    65.2245   998.6872  0.000e+00
      0.653    17.7321    17.7363     98.745  84.400032      0.929     7.6988     80.899    9.51658    9.50200 3.1618e+01     2.6194     1.7265    64.9446   998.6870  0.000e+00
      0.654    17.7338    17.7381     98.672  84.340591      0.930     7.6992     80.906    9.51624    9.50166 3.1480e+01     2.6448     1.7190    65.0675   998.6867  0.000e+00
      0.652    17.7346    17.7388     98.670  84.340591      0.927     7.6901     80.812    9.51609    9.50151 3.1356e+01     2.5982     1.7031    65.3266   998.6865  0.000e+00
      0.653    17.7336    17.7379     98.602  84.281152      0.929     7.6894     80.803    9.51628    9.50170 3.1549e+01     2.6618     1.6986    65.3992   998.6867  0.000e+00
      0.652    17.7333    17.7375     98.603  84.281152      0.927     7.6848     80.754    9.51635    9.50177 3.1556e+01     2.6321     1.7080    65.2467   998.6867  0.000e+00
      0.650    17.7335    17.7377     98.603  84.281152      0.924     7.6903     80.812    9.51631    9.50173 3.1750e+01     2.7338     1.7180    65.0838   998.6867  0.000e+00
      0.648    17.7319    17.7362     98.815  84.459472      0.921     7.6796     80.697    9.51661    9.50203 3.1542e+01     2.7550     1.7253    64.9654   998.6870  0.000e+00
      0.651    17.7314    17.7357     98.886  84.518913      0.926     7.6728     80.625    9.51671    9.50213 3.1840e+01     2.6427     1.7282    64.9180   998.6872  0.000e+00
      0.652    17.7325    17.7368     98.675  84.340592      0.927     7.6749     80.648    9.51650    9.50192 3.1501e+01     2.6618     1.7231    65.0009   998.6869  0.000e+00
      0.653    17.7335    17.7378     98.742  84.400031      0.929     7.6797     80.701    9.51629    9.50171 3.1233e+01     2.6236     1.7293    64.9002   998.6867  0.000e+00
      0.651    17.7343    17.7386     98.601  84.281151      0.926     7.6804     80.709    9.51614    9.50156 3.1384e+01     2.5791     1.7187    65.0720   998.6865  0.000e+00
      0.651    17.7347    17.7389     98.391  84.102833      0.926     7.6795     80.700    9.51608    9.50150 3.1563e+01     2.6257     1.7255    64.9609   998.6864  0.000e+00
      0.650    17.7333    17.7375     98.742  84.400031      0.924     7.6842     80.748    9.51634    9.50176 3.1708e+01     2.6109     1.7357    64.7966   998.6868  0.000e+00
      0.650    17.7304    17.7347     98.540  84.221713      0.924     7.6941     80.847    9.51690    9.50233 3.1701e+01     2.5515     1.7252    64.9669   998.6872  0.000e+00
      0.651    17.7300    17.7343     98.611  84.281153      0.926     7.6904     80.807    9.51699    9.50241 3.1729e+01     2.4519     1.7203    65.0453   998.6873  0.000e+00
      0.653    17.7314    17.7357     98.886  84.518913      0.929     7.6932     80.838    9.51671    9.50213 3.1508e+01     2.3841     1.7271    64.9358   998.6872  0.000e+00
      0.652    17.7324    17.7367     98.362  84.073114      0.927     7.6900     80.806    9.51652    9.50194 3.1528e+01     2.4286     1.7343    64.8188   998.6868  0.000e+00
      0.653    17.7332    17.7375     98.812  84.459472      0.929     7.6908     80.816    9.51636    9.50178 3.1240e+01     2.4667     1.7237    64.9905   998.6868  0.000e+00
      0.650    17.7353    17.7395     98.599  84.281151      0.924     7.6888     80.799    9.51596    9.50138 3.1452e+01     2.6130     1.7385    64.7507   998.6863  0.000e+00
      0.650    17.7360    17.7403     98.458  84.162272      0.924     7.6830     80.740    9.51581    9.50123 3.1508e+01     2.6045     1.7336    64.8306   998.6862  0.000e+00
      0.651    17.7364    17.7406     98.457  84.162272      0.926     7.6786     80.694    9.51574    9.50116 3.1639e+01     2.6639     1.7227    65.0068   998.6861  0.000e+00
      0.649    17.7364    17.7406     98.526  84.221711      0.923     7.6736     80.641    9.51574    9.50116 3.1938e+01     2.6702     1.7359    64.7921   998.6861  0.000e+00
      0.653    17.7360    17.7403     98.875  84.518911      0.929     7.6690     80.593    9.51580    9.50122 3.1425e+01     2.7381     1.7222    65.0157   998.6863  0.000e+00
      0.653    17.7360    17.7403     98.736  84.400031      0.929     7.6772     80.678    9.51580    9.50122 3.1452e+01     2.7762     1.7408    64.7137   998.6863  0.000e+00
      0.654    17.7354    17.7397     98.876  84.518911      0.930     7.6646     80.546    9.51592    9.50134 3.1104e+01     2.8420     1.7161    65.1149   998.6864  0.000e+00
      0.656    17.7362    17.7405     98.805  84.459471      0.933     7.6571     80.468    9.51577    9.50119 3.1521e+01     2.8038     1.7363    64.7862   998.6863  0.000e+00
      0.655    17.7380    17.7423     98.523  84.221711      0.932     7.6561     80.460    9.51542    9.50084 3.0738e+01     2.8462     1.7420    64.6944   998.6858  0.000e+00
      0.656    17.7383    17.7425     98.453  84.162271      0.933     7.6624     80.527    9.51537    9.50079 3.1165e+01     2.8356     1.7522    64.5301   998.6858  0.000e+00
      0.658    17.7386    17.7429     98.730  84.400030      0.936     7.6664     80.569    9.51529    9.50071 3.1192e+01     2.7720     1.7313    64.8677   998.6858  0.000e+00
      0.655    17.7404    17.7446     98.656  84.340590      0.932     7.6736     80.648    9.51496    9.50038 3.1459e+01     2.8483     1.7422    64.6915   998.6855  0.000e+00
      0.653    17.7411    17.7454     98.863  84.518910      0.929     7.6741     80.655    9.51480    9.50022 3.1487e+01     2.9564     1.7361    64.7892   998.6854  0.000e+00
      0.649    17.7398    17.7441     98.658  84.340590      0.923     7.6818     80.733    9.51506    9.50048 3.1673e+01     2.8483     1.7200    65.0513   998.6855  0.000e+00
      0.643    17.7390    17.7432     98.451  84.162271      0.915     7.6879     80.796    9.51523    9.50065 3.1694e+01     2.7720     1.7111    65.1964   998.6856  0.000e+00
      0.644    17.7377    17.7419     98.454  84.162271      0.916     7.6974     80.894    9.51549    9.50091 3.1411e+01     2.7932     1.7114    65.1904   998.6858  0.000e+00
      0.657    17.7367    17.7410     98.734  84.400031      0.935     7.7037     80.958    9.51567    9.50109 3.0920e+01     2.7232     1.7331    64.8380   998.6862  0.000e+00
      0.668    17.7370    17.7413     98.908  84.548631      0.950     7.7024     80.944    9.51561    9.50103 3.0531e+01     2.7084     1.7279    64.9224   998.6862  0.000e+00
      0.679    17.7385    17.7428     98.730  84.400030      0.966     7.7148     81.078    9.51531    9.50073 3.0711e+01     2.6978     1.7233    64.9965   998.6859  0.000e+00
      0.680    17.7425    17.7468     98.651  84.340589      0.967     7.7161     81.098    9.51454    9.49995 3.1090e+01     2.6151     1.7348    64.8114   998.6852  0.000e+00
      0.676    17.7453    17.7495     98.436  84.162269      0.961     7.7179     81.122    9.51400    9.49941 3.1192e+01     2.7232     1.7002    65.3740   998.6846  0.000e+00
      0.668    17.7446    17.7488     98.716  84.400029      0.950     7.7156     81.096    9.51413    9.49954 3.1322e+01     2.7042     1.7198    65.0542   998.6848  0.000e+00
      0.666    17.7433    17.7475     98.441  84.162270      0.947     7.7120     81.056    9.51439    9.49980 3.1494e+01     2.6745     1.7261    64.9520   998.6849  0.000e+00
      0.661    17.7391    17.7433     98.520  84.221711      0.940     7.7008     80.932    9.51521    9.50063 3.1501e+01     2.7974     1.7303    64.8839   998.6857  0.000e+00
      0.658    17.7331    17.7374     98.986  84.608073      0.936     7.6989     80.902    9.51637    9.50179 3.1178e+01     2.8165     1.7479    64.5982   998.6869  0.000e+00
      0.659    17.7312    17.7355     98.817  84.459472      0.938     7.6943     80.850    9.51675    9.50217 3.1097e+01     2.8504     1.7515    64.5404   998.6872  0.000e+00
      0.656    17.7334    17.7376     98.742  84.400032      0.933     7.6889     80.797    9.51632    9.50175 3.0954e+01     2.7911     1.7480    64.5967   998.6868  0.000e+00
      0.655    17.7335    17.7378     98.811  84.459472      0.932     7.6900     80.809    9.51629    9.50171 3.1206e+01     2.7635     1.7168    65.1031   998.6868  0.000e+00
      0.650    17.7298    17.7340     98.750  84.400032      0.924     7.6880     80.782    9.51703    9.50246 3.1192e+01     2.7020     1.7264    64.9461   998.6874  0.000e+00
      0.651    17.7274    17.7317     98.617  84.281153      0.926     7.6882     80.780    9.51749    9.50292 3.1514e+01     2.7593     1.7249    64.9713   998.6878  0.000e+00
      0.652    17.7273    17.7315     98.374  84.073115      0.927     7.6943     80.843    9.51753    9.50296 3.0920e+01     2.7444     1.7266    64.9432   998.6877  0.000e+00
      0.655    17.7274    17.7317     98.686  84.340593      0.932     7.6930     80.830    9.51749    9.50292 3.1076e+01     2.7211     1.7172    65.0957   998.6878  0.000e+00
      0.661    17.7270    17.7313     98.479  84.162274      0.940     7.6974     80.875    9.51758    9.50301 3.1247e+01     2.6151     1.7158    65.1194   998.6879  0.000e+00
      0.661    17.7303    17.7345     98.541  84.221713      0.940     7.7056     80.967    9.51694    9.50236 3.1514e+01     2.7020     1.7104    65.2067   998.6873  0.000e+00
      0.659    17.7343    17.7386     98.879  84.518912      0.938     7.7003     80.918    9.51614    9.50156 3.1487e+01     2.6342     1.7278    64.9239   998.6867  0.000e+00
      0.658    17.7363    17.7406     98.596  84.281151      0.936     7.6967     80.884    9.51575    9.50117 3.1604e+01     2.5939     1.7381    64.7566   998.6862  0.000e+00
      0.656    17.7376    17.7419     98.802  84.459471      0.933     7.7014     80.936    9.51550    9.50091 3.1480e+01     2.5558     1.7231    65.0009   998.6860  0.000e+00
      0.654    17.7394    17.7437     98.798  84.459470      0.930     7.6992     80.915    9.51514    9.50056 3.1097e+01     2.5579     1.7139    65.1505   998.6857  0.000e+00
      0.657    17.7397    17.7439     98.345  84.073112      0.935     7.7003     80.927    9.51510    9.50052 3.1618e+01     2.6596     1.7254    64.9624   998.6855  0.000e+00
      0.658    17.7386    17.7429     98.452  84.162271      0.936     7.6932     80.851    9.51530    9.50072 3.1295e+01     2.6512     1.7235    64.9935   998.6857  0.000e+00
      0.658    17.7380    17.7423     98.592  84.281150      0.936     7.6930     80.848    9.51542    9.50084 3.1384e+01     2.7211     1.7251    64.9683   998.6859  0.000e+00
      0.658    17.7385    17.7428     98.591  84.281150      0.936     7.6953     80.873    9.51531    9.50073 3.1439e+01     2.8208     1.7310    64.8721   998.6858  0.000e+00
      0.657    17.7391    17.7433     98.659  84.340590      0.935     7.7019     80.943    9.51521    9.50063 3.1233e+01     2.8356     1.7285    64.9136   998.6857  0.000e+00
      0.656    17.7391    17.7434     98.520  84.221710      0.933     7.7005     80.929    9.51520    9.50062 3.1138e+01     2.8759     1.7293    64.9002   998.6856  0.000e+00
      0.656    17.7394    17.7437     98.520  84.221710      0.933     7.6944     80.865    9.51515    9.50057 3.0853e+01     2.7656     1.7320    64.8558   998.6856  0.000e+00
      0.656    17.7398    17.7440     98.797  84.459470      0.933     7.7003     80.927    9.51507    9.50049 3.1446e+01     2.7996     1.7232    64.9994   998.6856  0.000e+00
      0.656    17.7396    17.7438     98.380  84.102832      0.933     7.6973     80.895    9.51512    9.50054 3.1124e+01     2.7550     1.7358    64.7951   998.6855  0.000e+00
      0.658    17.7395    17.7438     98.728  84.400030      0.936     7.6957     80.878    9.51513    9.50054 3.1315e+01     2.7020     1.7115    65.1889   998.6857  0.000e+00
      0.656    17.7404    17.7447     98.587  84.281150      0.933     7.6964     80.887    9.51494    9.50036 3.1411e+01     2.6406     1.7155    65.1238   998.6854  0.000e+00
      0.656    17.7402    17.7444     98.657  84.340590      0.933     7.6923     80.844    9.51499    9.50041 3.1653e+01     2.6469     1.7010    65.3607   998.6855  0.000e+00
      0.656    17.7393    17.7436     98.798  84.459470      0.933     7.6934     80.854    9.51516    9.50058 3.1597e+01     2.6151     1.7131    65.1638   998.6857  0.000e+00
      0.655    17.7379    17.7422     98.453  84.162271      0.932     7.6923     80.840    9.51544    9.50086 3.1653e+01     2.5897     1.7236    64.9920   998.6858  0.000e+00
      0.657    17.7350    17.7393     98.808  84.459471      0.935     7.6978     80.893    9.51600    9.50142 3.1473e+01     2.6512     1.7185    65.0749   998.6865  0.000e+00
      0.656    17.7331    17.7374     98.882  84.518912      0.933     7.6937     80.847    9.51637    9.50179 3.1666e+01     2.5642     1.7205    65.0424   998.6869  0.000e+00
      0.658    17.7316    17.7358     98.607  84.281152      0.936     7.6995     80.906    9.51668    9.50211 3.1611e+01     2.4710     1.7043    65.3074   998.6871  0.000e+00
      0.656    17.7329    17.7372     98.882  84.518912      0.933     7.6955     80.866    9.51641    9.50183 3.1618e+01     2.5282     1.7098    65.2171   998.6869  0.000e+00
      0.656    17.7346    17.7388     98.809  84.459471      0.933     7.6944     80.856    9.51609    9.50151 3.1172e+01     2.5791     1.7310    64.8721   998.6866  0.000e+00
      0.656    17.7349    17.7392     98.669  84.340591      0.933     7.6983     80.898    9.51602    9.50144 3.1172e+01     2.5706     1.7042    65.3089   998.6865  0.000e+00
      0.656    17.7364    17.7406     98.387  84.102832      0.933     7.6961     80.878    9.51574    9.50116 3.1473e+01     2.5324     1.7151    65.1312   998.6861  0.000e+00
      0.657    17.7380    17.7423     98.592  84.281150      0.935     7.6901     80.817    9.51542    9.50084 3.1535e+01     2.6363     1.7371    64.7729   998.6859  0.000e+00
      0.659    17.7391    17.7434     98.590  84.281150      0.938     7.6911     80.829    9.51520    9.50061 3.1336e+01     2.5452     1.7124    65.1741   998.6857  0.000e+00
      0.656    17.7398    17.7440     98.727  84.400030      0.933     7.6963     80.885    9.51507    9.50049 3.1110e+01     2.5600     1.7168    65.1031   998.6856  0.000e+00
      0.658    17.7404    17.7446     98.344  84.073112      0.936     7.6966     80.890    9.51497    9.50038 3.1466e+01     2.5579     1.7237    64.9905   998.6854  0.000e+00
      0.656    17.7391    17.7433     98.972  84.608071      0.933     7.6965     80.887    9.51520    9.50062 3.0941e+01     2.5155     1.7219    65.0202   998.6858  0.000e+00
      0.655    17.7374    17.7417     98.524  84.221711      0.932     7.6998     80.918    9.51554    9.50096 3.1604e+01     2.4731     1.7241    64.9846   998.6859  0.000e+00
      0.657    17.7358    17.7400     98.458  84.162272      0.935     7.6983     80.900    9.51586    9.50128 3.1563e+01     2.4773     1.7115    65.1889   998.6862  0.000e+00
      0.658    17.7364    17.7406     98.666  84.340591      0.936     7.7033     80.954    9.51574    9.50116 3.1226e+01     2.5240     1.7144    65.1416   998.6862  0.000e+00
      0.659    17.7369    17.7412     98.351  84.073113      0.938     7.6980     80.898    9.51564    9.50106 3.1521e+01     2.5430     1.7245    64.9772   998.6860  0.000e+00
      0.661    17.7375    17.7418     98.872  84.518911      0.940     7.6884     80.799    9.51551    9.50093 3.1694e+01     2.4901     1.7441    64.6604   998.6861  0.000e+00
      0.658    17.7389    17.7431     98.590  84.281150      0.936     7.6860     80.776    9.51525    9.50067 3.1083e+01     2.4371     1.7295    64.8973   998.6857  0.000e+00
      0.656    17.7379    17.7421     98.801  84.459470      0.933     7.6873     80.787    9.51544    9.50086 3.1254e+01     2.4837     1.7301    64.8869   998.6860  0.000e+00
      0.656    17.7373    17.7416     98.594  84.281151      0.933     7.6768     80.676    9.51555    9.50097 3.1398e+01     2.4286     1.7119    65.1830   998.6860  0.000e+00
      0.656    17.7363    17.7406     98.596  84.281151      0.933     7.6783     80.690    9.51575    9.50117 3.1391e+01     2.5600     1.7102    65.2097   998.6862  0.000e+00
      0.658    17.7343    17.7386     98.392  84.102833      0.936     7.6828     80.735    9.51615    9.50157 3.1178e+01     2.5388     1.7103    65.2082   998.6865  0.000e+00
      0.656    17.7354    17.7396     98.737  84.400031      0.933     7.6916     80.829    9.51594    9.50136 3.1308e+01     2.5833     1.7176    65.0897   998.6864  0.000e+00
      0.657    17.7368    17.7411     98.804  84.459471      0.935     7.6913     80.827    9.51565    9.50107 3.1487e+01     2.5494     1.7124    65.1741   998.6862  0.000e+00
      0.655    17.7378    17.7420     98.662  84.340590      0.932     7.6892     80.807    9.51546    9.50088 3.1812e+01     2.5876     1.7532    64.5138   998.6859  0.000e+00
      0.656    17.7389    17.7431     98.660  84.340590      0.933     7.6889     80.806    9.51525    9.50066 3.1029e+01     2.5473     1.7155    65.1238   998.6857  0.000e+00
      0.656    17.7396    17.7438     98.728  84.400030      0.933     7.6856     80.773    9.51511    9.50053 3.1590e+01     2.5367     1.7112    65.1949   998.6856  0.000e+00
      0.654    17.7379    17.7422     98.592  84.281150      0.930     7.6851     80.764    9.51543    9.50085 3.2015e+01     2.4604     1.7105    65.2052   998.6859  0.000e+00
      0.653    17.7363    17.7406     98.909  84.548631      0.929     7.6902     80.816    9.51575    9.50117 3.1625e+01     2.5897     1.7225    65.0098   998.6863  0.000e+00
      0.652    17.7379    17.7421     98.593  84.281150      0.927     7.6876     80.791    9.51545    9.50087 3.1473e+01     2.5876     1.7346    64.8143   998.6859  0.000e+00
      0.654    17.7400    17.7443     98.796  84.459470      0.930     7.6890     80.809    9.51502    9.50044 3.1764e+01     2.5558     1.7161    65.1149   998.6856  0.000e+00
      0.654    17.7408    17.7450     98.586  84.281150      0.930     7.6919     80.841    9.51488    9.50029 3.1343e+01     2.6066     1.7061    65.2778   998.6854  0.000e+00
      0.653    17.7410    17.7452     98.655  84.340589      0.929     7.6983     80.908    9.51484    9.50026 3.1281e+01     2.6066     1.7157    65.1208   998.6853  0.000e+00
      0.653    17.7412    17.7455     98.654  84.340589      0.929     7.6926     80.849    9.51479    9.50021 3.1521e+01     2.6660     1.7363    64.7862   998.6853  0.000e+00
      0.655    17.7410    17.7452     98.342  84.073112      0.932     7.6899     80.820    9.51485    9.50027 3.1687e+01     2.7169     1.7132    65.1608   998.6852  0.000e+00
      0.655    17.7407    17.7450     98.725  84.400029      0.932     7.6972     80.897    9.51489    9.50031 3.1487e+01     2.6999     1.7069    65.2645   998.6854  0.000e+00
      0.657    17.7401    17.7444     98.796  84.459470      0.935     7.7029     80.956    9.51501    9.50042 3.1070e+01     2.6384     1.7187    65.0720   998.6856  0.000e+00
      0.657    17.7403    17.7445     98.448  84.162271      0.935     7.7021     80.947    9.51498    9.50040 3.1288e+01     2.5430     1.7107    65.2023   998.6854  0.000e+00
      0.654    17.7384    17.7426     98.522  84.221711      0.930     7.7011     80.933    9.51535    9.50077 3.1281e+01     2.5706     1.7078    65.2497   998.6858  0.000e+00
      0.643    17.7359    17.7401     98.458  84.162272      0.915     7.7092     81.015    9.51584    9.50126 3.1798e+01     2.6342     1.7017    65.3489   998.6862  0.000e+00
      0.639    17.7348    17.7390     98.739  84.400031      0.909     7.6945     80.858    9.51605    9.50148 3.1391e+01     2.6618     1.6963    65.4377   998.6864  0.000e+00
      0.645    17.7349    17.7392     98.460  84.162272      0.918     7.6991     80.907    9.51603    9.50145 3.1398e+01     2.6109     1.6977    65.4140   998.6863  0.000e+00
      0.657    17.7363    17.7406     98.388  84.102833      0.935     7.6891     80.804    9.51576    9.50118 3.0975e+01     2.5812     1.7092    65.2274   998.6861  0.000e+00
      0.671    17.7374    17.7417     98.594  84.281151      0.955     7.6843     80.756    9.51553    9.50095 3.0738e+01     2.6066     1.7124    65.1741   998.6860  0.000e+00
      0.683    17.7405    17.7448     98.447  84.162271      0.972     7.6862     80.780    9.51493    9.50035 3.0238e+01     2.5854     1.7033    65.3237   998.6855  0.000e+00
      0.690    17.7427    17.7469     98.512  84.221710      0.981     7.6848     80.769    9.51451    9.49992 3.0591e+01     2.4519     1.7128    65.1682   998.6851  0.000e+00
      0.694    17.7441    17.7484     98.787  84.459469      0.987     7.6852     80.776    9.51421    9.49963 3.1165e+01     2.5007     1.7225    65.0098   998.6850  0.000e+00
      0.684    17.7450    17.7493     98.646  84.340589      0.973     7.6952     80.883    9.51405    9.49946 3.1165e+01     2.5473     1.7290    64.9047   998.6847  0.000e+00
      0.675    17.7448    17.7491     98.507  84.221709      0.960     7.7000     80.933    9.51408    9.49950 3.1439e+01     2.6151     1.7069    65.2645   998.6847  0.000e+00
      0.675    17.7442    17.7485     98.439  84.162270      0.960     7.6948     80.877    9.51420    9.49962 3.1267e+01     2.5430     1.7094    65.2230   998.6848  0.000e+00
      0.679    17.7419    17.7462     98.722  84.400029      0.966     7.6944     80.869    9.51465    9.50007 3.0887e+01     2.5007     1.7024    65.3385   998.6853  0.000e+00
      0.684    17.7391    17.7434     98.868  84.518911      0.973     7.6877     80.794    9.51519    9.50061 3.1076e+01     2.6384     1.7160    65.1164   998.6859  0.000e+00
      0.688    17.7390    17.7432     98.381  84.102832      0.978     7.6885     80.802    9.51524    9.50065 3.0792e+01     2.5536     1.7123    65.1756   998.6858  0.000e+00
      0.691    17.7398    17.7440     98.588  84.281150      0.983     7.6793     80.707    9.51508    9.50050 3.1466e+01     2.5918     1.7285    64.9136   998.6857  0.000e+00
      0.689    17.7402    17.7444     98.796  84.459470      0.980     7.6762     80.675    9.51499    9.50041 3.1192e+01     2.5155     1.6955    65.4510   998.6857  0.000e+00
      0.682    17.7400    17.7443     98.796  84.459470      0.970     7.6749     80.661    9.51502    9.50044 3.1535e+01     2.3141     1.7074    65.2556   998.6857  0.000e+00
      0.683    17.7398    17.7440     98.519  84.221711      0.972     7.6772     80.684    9.51508    9.50050 3.1459e+01     2.2950     1.7097    65.2186   998.6857  0.000e+00
      0.695    17.7401    17.7444     98.518  84.221711      0.989     7.6814     80.729    9.51501    9.50043 3.0738e+01     2.2526     1.7101    65.2126   998.6856  0.000e+00
      0.714    17.7398    17.7441     98.519  84.221711      1.015     7.6814     80.729    9.51506    9.50048 3.0557e+01     2.2569     1.6923    65.5028   998.6858  0.000e+00
      0.727    17.7404    17.7446     98.587  84.281150      1.034     7.6846     80.763    9.51496    9.50038 3.0651e+01     2.2399     1.7156    65.1223   998.6858  0.000e+00
      0.720    17.7422    17.7464     98.583  84.281150      1.024     7.6777     80.694    9.51460    9.50002 3.1042e+01     2.2420     1.7123    65.1756   998.6854  0.000e+00
      0.715    17.7435    17.7478     98.649  84.340589      1.017     7.6787     80.706    9.51433    9.49975 3.1083e+01     2.3077     1.7076    65.2526   998.6851  0.000e+00
      0.718    17.7432    17.7475     98.441  84.162270      1.021     7.6759     80.677    9.51441    9.49982 3.0711e+01     2.2526     1.7122    65.1786   998.6852  0.000e+00
      0.727    17.7410    17.7453     98.794  84.459470      1.034     7.6793     80.709    9.51482    9.50024 3.0517e+01     2.2781     1.7177    65.0883   998.6857  0.000e+00
      0.731    17.7395    17.7438     98.728  84.400030      1.040     7.6794     80.708    9.51513    9.50054 3.0086e+01     2.2781     1.7139    65.1505   998.6860  0.000e+00
      0.733    17.7406    17.7449     98.517  84.221711      1.043     7.6735     80.648    9.51491    9.50033 3.0759e+01     2.2611     1.7223    65.0128   998.6857  0.000e+00
      0.727    17.7416    17.7459     98.584  84.281150      1.034     7.6730     80.643    9.51471    9.50012 3.1042e+01     2.2696     1.7154    65.1253   998.6855  0.000e+00
      0.722    17.7414    17.7456     98.654  84.340590      1.028     7.6662     80.572    9.51476    9.50017 3.0880e+01     2.3332     1.7075    65.2541   998.6856  0.000e+00
      0.720    17.7407    17.7450     98.447  84.162271      1.024     7.6700     80.610    9.51490    9.50031 3.0927e+01     2.3353     1.7086    65.2363   998.6856  0.000e+00
      0.722    17.7400    17.7443     98.727  84.400030      1.028     7.6711     80.621    9.51502    9.50044 3.0664e+01     2.3035     1.7039    65.3133   998.6859  0.000e+00
      0.727    17.7397    17.7439     98.658  84.340590      1.034     7.6690     80.598    9.51509    9.50051 3.0725e+01     2.3417     1.7142    65.1445   998.6859  0.000e+00
      0.730    17.7394    17.7437     98.450  84.162272      1.038     7.6778     80.690    9.51515    9.50057 3.0397e+01     2.2653     1.7205    65.0424   998.6859  0.000e+00
      0.734    17.7395    17.7438     98.450  84.162272      1.045     7.6867     80.784    9.51513    9.50055 3.1029e+01     2.2802     1.7103    65.2082   998.6859  0.000e+00
      0.733    17.7387    17.7430     98.591  84.281151      1.043     7.6889     80.805    9.51528    9.50070 3.0611e+01     2.3099     1.7127    65.1697   998.6861  0.000e+00
      0.731    17.7366    17.7408     98.874  84.518912      1.040     7.6825     80.735    9.51570    9.50112 3.0799e+01     2.3332     1.7213    65.0305   998.6866  0.000e+00
      0.726    17.7342    17.7384     98.601  84.281152      1.032     7.6902     80.812    9.51618    9.50160 3.0664e+01     2.3289     1.7096    65.2200   998.6869  0.000e+00
      0.722    17.7331    17.7374     98.604  84.281152      1.028     7.6869     80.776    9.51638    9.50180 3.0779e+01     2.3544     1.7193    65.0616   998.6871  0.000e+00
      0.728    17.7341    17.7383     98.601  84.281152      1.035     7.6912     80.822    9.51619    9.50162 3.0451e+01     2.3374     1.7149    65.1342   998.6869  0.000e+00
      0.730    17.7347    17.7389     98.530  84.221712      1.038     7.6972     80.886    9.51608    9.50150 3.0437e+01     2.4286     1.7189    65.0690   998.6868  0.000e+00
      0.742    17.7334    17.7376     98.533  84.221713      1.055     7.6915     80.824    9.51633    9.50175 3.0139e+01     2.4074     1.7084    65.2393   998.6871  0.000e+00
      0.753    17.7339    17.7381     98.741  84.400032      1.071     7.6886     80.795    9.51622    9.50165 2.9811e+01     2.3883     1.7129    65.1667   998.6871  0.000e+00
      0.759    17.7365    17.7407     98.735  84.400031      1.080     7.6963     80.880    9.51572    9.50114 2.9707e+01     2.3841     1.7123    65.1756   998.6867  0.000e+00
      0.763    17.7385    17.7427     98.522  84.221712      1.085     7.6947     80.867    9.51533    9.50075 3.0073e+01     2.3395     1.7107    65.2023   998.6862  0.000e+00
      0.764    17.7389    17.7431     98.521  84.221711      1.086     7.6930     80.849    9.51525    9.50067 2.9877e+01     2.3438     1.7147    65.1371   998.6862  0.000e+00
      0.757    17.7389    17.7431     98.660  84.340591      1.077     7.6901     80.819    9.51525    9.50066 2.9988e+01     2.3925     1.7048    65.2985   998.6862  0.000e+00
      0.755    17.7385    17.7427     98.591  84.281151      1.074     7.6951     80.871    9.51533    9.50075 3.0080e+01     2.5007     1.6914    65.5176   998.6862  0.000e+00
      0.758    17.7355    17.7398     98.528  84.221712      1.079     7.6967     80.882    9.51591    9.50133 2.9935e+01     2.4540     1.6919    65.5088   998.6868  0.000e+00
      0.760    17.7326    17.7369     98.396  84.102834      1.082     7.6972     80.883    9.51649    9.50191 2.9668e+01     2.4328     1.7172    65.0957   998.6873  0.000e+00
      0.762    17.7317    17.7359     98.746  84.400033      1.083     7.7033     80.946    9.51666    9.50209 2.9962e+01     2.4964     1.7141    65.1475   998.6876  0.000e+00
      0.763    17.7324    17.7367     98.536  84.221713      1.085     7.6980     80.891    9.51652    9.50194 2.9753e+01     2.5261     1.7215    65.0261   998.6873  0.000e+00
      0.765    17.7329    17.7371     98.604  84.281153      1.088     7.7043     80.958    9.51643    9.50185 2.9772e+01     2.4455     1.7183    65.0779   998.6873  0.000e+00
      0.760    17.7332    17.7375     98.464  84.162273      1.082     7.7076     80.993    9.51637    9.50179 2.9863e+01     2.4540     1.7251    64.9683   998.6872  0.000e+00
      0.760    17.7346    17.7388     98.600  84.281152      1.082     7.7061     80.980    9.51609    9.50151 2.9857e+01     2.4625     1.7184    65.0764   998.6870  0.000e+00
      0.760    17.7335    17.7378     98.672  84.340592      1.082     7.7030     80.945    9.51629    9.50172 2.9681e+01     2.4349     1.7171    65.0986   998.6872  0.000e+00
      0.760    17.7315    17.7357     98.677  84.340593      1.082     7.7017     80.928    9.51670    9.50212 3.0021e+01     2.4010     1.7024    65.3385   998.6876  0.000e+00
      0.759    17.7296    17.7338     98.751  84.400033      1.080     7.6940     80.845    9.51707    9.50249 2.9792e+01     2.4053     1.7117    65.1860   998.6879  0.000e+00
      0.763    17.7298    17.7340     98.611  84.281154      1.085     7.6963     80.869    9.51704    9.50246 3.0165e+01     2.4583     1.7076    65.2526   998.6879  0.000e+00
      0.765    17.7294    17.7337     98.751  84.400033      1.088     7.7026     80.934    9.51710    9.50253 2.9785e+01     2.5452     1.7122    65.1786   998.6880  0.000e+00
      0.768    17.7287    17.7330     98.614  84.281154      1.092     7.6948     80.852    9.51724    9.50267 2.9746e+01     2.6130     1.7156    65.1223   998.6881  0.000e+00
      0.766    17.7284    17.7326     98.545  84.221714      1.089     7.6896     80.796    9.51731    9.50274 2.9779e+01     2.6003     1.7102    65.2112   998.6881  0.000e+00
      0.767    17.7298    17.7341     98.402  84.102835      1.091     7.6882     80.783    9.51703    9.50245 2.9779e+01     2.6151     1.7032    65.3252   998.6878  0.000e+00
      0.764    17.7312    17.7355     98.817  84.459473      1.086     7.6941     80.848    9.51675    9.50217 2.9707e+01     2.6830     1.7125    65.1727   998.6877  0.000e+00
      0.766    17.7318    17.7361     98.467  84.162274      1.089     7.6911     80.817    9.51664    9.50206 2.9909e+01     2.7063     1.7103    65.2082   998.6874  0.000e+00
      0.766    17.7323    17.7365     98.466  84.162274      1.089     7.6865     80.770    9.51655    9.50198 2.9811e+01     2.8292     1.6980    65.4096   998.6874  0.000e+00
      0.766    17.7338    17.7381     98.602  84.281152      1.089     7.6973     80.886    9.51624    9.50167 2.9740e+01     2.7847     1.7269    64.9387   998.6871  0.000e+00
      0.767    17.7353    17.7395     98.668  84.340592      1.091     7.7069     80.989    9.51595    9.50138 2.9863e+01     2.8526     1.7164    65.1090   998.6869  0.000e+00
      0.765    17.7360    17.7403     98.666  84.340592      1.088     7.7073     80.994    9.51580    9.50122 2.9772e+01     2.8271     1.7244    64.9802   998.6867  0.000e+00
      0.765    17.7368    17.7411     98.595  84.281152      1.088     7.7058     80.980    9.51565    9.50107 2.9603e+01     2.8186     1.7227    65.0068   998.6866  0.000e+00
      0.776    17.7380    17.7423     98.523  84.221712      1.103     7.7083     81.009    9.51542    9.50084 2.9020e+01     2.7572     1.7147    65.1371   998.6864  0.000e+00
      0.804    17.7387    17.7430     98.660  84.340591      1.143     7.7065     80.991    9.51528    9.50070 2.8692e+01     2.7444     1.7192    65.0646   998.6864  0.000e+00
      0.820    17.7403    17.7445     98.518  84.221711      1.167     7.7020     80.946    9.51498    9.50040 2.8799e+01     2.8038     1.7205    65.0424   998.6862  0.000e+00
      0.820    17.7426    17.7469     98.651  84.340590      1.167     7.7003     80.932    9.51452    9.49993 2.8918e+01     2.7487     1.7207    65.0394   998.6858  0.000e+00
      0.815    17.7438    17.7481     98.579  84.281150      1.159     7.6901     80.827    9.51428    9.49970 2.8692e+01     2.7572     1.7165    65.1075   998.6855  0.000e+00
      0.804    17.7426    17.7469     98.651  84.340590      1.143     7.6921     80.846    9.51452    9.49993 2.9192e+01     2.8377     1.7233    64.9979   998.6857  0.000e+00
      0.798    17.7398    17.7440     98.727  84.400031      1.136     7.6901     80.820    9.51507    9.50049 2.8729e+01     2.8356     1.7162    65.1120   998.6862  0.000e+00
      0.820    17.7372    17.7414     98.664  84.340592      1.167     7.6929     80.846    9.51558    9.50100 2.8504e+01     2.7105     1.7162    65.1120   998.6868  0.000e+00
      0.865    17.7367    17.7410     98.734  84.400032      1.230     7.6897     80.810    9.51567    9.50109 2.7656e+01     2.6469     1.7314    64.8662   998.6871  0.000e+00
      0.918    17.7389    17.7431     98.590  84.281152      1.306     7.6878     80.795    9.51525    9.50067 2.6934e+01     2.7042     1.7592    64.4161   998.6869  0.000e+00
      0.969    17.7419    17.7462     98.653  84.340592      1.378     7.6832     80.751    9.51465    9.50007 2.6219e+01     2.7232     1.7193    65.0631   998.6866  0.000e+00
      1.014    17.7441    17.7483     98.717  84.400031      1.442     7.6818     80.741    9.51423    9.49964 2.6116e+01     2.7063     1.7041    65.3104   998.6864  0.000e+00
      1.044    17.7455    17.7498     98.644  84.340591      1.485     7.6878     80.805    9.51394    9.49936 2.5809e+01     2.8165     1.7132    65.1623   998.6863  0.000e+00
      1.087    17.7458    17.7500     98.644  84.340592      1.547     7.6857     80.784    9.51389    9.49931 2.5196e+01     2.7190     1.7232    64.9994   998.6864  0.000e+00
      1.107    17.7466    17.7508     98.642  84.340591      1.574     7.6870     80.799    9.51374    9.49915 2.5267e+01     2.7275     1.7438    64.6648   998.6864  0.000e+00
      1.113    17.7477    17.7519     98.639  84.340591      1.584     7.7007     80.944    9.51352    9.49893 2.5267e+01     2.5897     1.7183    65.0779   998.6862  0.000e+00
      1.132    17.7477    17.7519     98.639  84.340591      1.610     7.6957     80.892    9.51352    9.49893 2.4900e+01     2.6745     1.7147    65.1371   998.6863  0.000e+00
      1.145    17.7471    17.7513     98.571  84.281152      1.629     7.6931     80.864    9.51364    9.49905 2.4960e+01     2.8165     1.7346    64.8143   998.6864  0.000e+00
      1.147    17.7463    17.7506     98.504  84.221712      1.632     7.6959     80.892    9.51380    9.49921 2.4867e+01     3.0285     1.7210    65.0350   998.6866  0.000e+00
      1.140    17.7472    17.7514     98.502  84.221712      1.621     7.6902     80.833    9.51363    9.49904 2.4954e+01     3.1048     1.7281    64.9195   998.6864  0.000e+00
      1.133    17.7471    17.7513     98.641  84.340592      1.612     7.6870     80.800    9.51364    9.49905 2.5196e+01     3.2511     1.7345    64.8158   998.6864  0.000e+00
      1.153    17.7450    17.7493     98.576  84.281152      1.639     7.6934     80.863    9.51405    9.49946 2.4807e+01     3.2787     1.7125    65.1727   998.6868  0.000e+00
      1.217    17.7437    17.7480     98.510  84.221714      1.730     7.6877     80.801    9.51430    9.49972 2.3808e+01     3.2723     1.7510    64.5493   998.6873  0.000e+00
      1.291    17.7450    17.7493     98.576  84.281154      1.836     7.6869     80.796    9.51405    9.49946 2.3487e+01     3.4101     1.7356    64.7981   998.6875  0.000e+00
      1.368    17.7472    17.7514     98.571  84.281154      1.945     7.6898     80.829    9.51363    9.49904 2.3293e+01     3.3422     1.7347    64.8129   998.6874  0.000e+00
      1.447    17.7481    17.7524     98.708  84.400034      2.058     7.6915     80.849    9.51344    9.49885 2.3065e+01     4.0121     1.7316    64.8632   998.6877  0.000e+00
      1.498    17.7490    17.7532     98.706  84.400034      2.131     7.6976     80.915    9.51327    9.49868 2.3034e+01     3.8023     1.7361    64.7892   998.6877  0.000e+00
      1.523    17.7491    17.7534     98.636  84.340594      2.166     7.6987     80.927    9.51323    9.49865 2.3075e+01     3.5691     1.7284    64.9150   998.6878  0.000e+00
      1.563    17.7485    17.7528     98.568  84.281155      2.223     7.6980     80.918    9.51335    9.49877 2.2899e+01     3.5479     1.7344    64.8173   998.6881  0.000e+00
      1.629    17.7473    17.7516     98.571  84.281156      2.318     7.6922     80.855    9.51359    9.49900 2.3156e+01     3.6687     1.7522    64.5286   998.6886  0.000e+00
      1.704    17.7477    17.7519     98.570  84.281156      2.424     7.6943     80.878    9.51352    9.49894 2.3808e+01     0.5525     1.7406    64.7166   998.6888  0.000e+00
      1.776    17.7482    17.7525     98.777  84.459476      2.526     7.6931     80.866    9.51342    9.49883 2.4759e+01     1.0697     1.7254    64.9639   998.6892  0.000e+00
      1.862    17.7480    17.7523     98.639  84.340597      2.648     7.6979     80.916    9.51345    9.49887 2.6116e+01     3.4567     1.7271    64.9358   998.6895  0.000e+00
      1.931    17.7478    17.7520     98.570  84.281158      2.747     7.6890     80.822    9.51351    9.49892 2.6484e+01     4.1542     1.7480    64.5967   998.6899  0.000e+00
      1.968    17.7481    17.7524     98.430  84.162279      2.800     7.6959     80.895    9.51344    9.49886 2.6934e+01     4.0524     1.7320    64.8558   998.6899  0.000e+00
      1.999    17.7485    17.7527     98.638  84.340598      2.843     7.6959     80.895    9.51337    9.49878 2.8287e+01     3.6454     1.7174    65.0927   998.6901  0.000e+00
      2.044    17.7478    17.7520     98.500  84.221719      2.908     7.6984     80.920    9.51351    9.49892 3.0265e+01     3.6433     1.7431    64.6767   998.6903  0.000e+00
      2.090    17.7467    17.7510     98.503  84.221720      2.973     7.6929     80.861    9.51371    9.49912 3.1185e+01     3.7514     1.7292    64.9017   998.6907  0.000e+00
      2.136    17.7466    17.7509     98.642  84.340600      3.037     7.6939     80.872    9.51372    9.49914 3.5474e+01     3.6793     1.7489    64.5819   998.6910  0.000e+00
      2.201    17.7472    17.7514     98.641  84.340600      3.130     7.6846     80.775    9.51362    9.49904 4.0768e+01     3.7238     1.7331    64.8380   998.6912  0.000e+00
      2.268    17.7473    17.7515     98.571  84.281161      3.226     7.6863     80.792    9.51361    9.49902 4.6202e+01     3.8001     1.7451    64.6441   998.6915  0.000e+00
      2.318    17.7479    17.7521     98.570  84.281161      3.297     7.6790     80.717    9.51349    9.49890 4.7234e+01     3.8023     1.7327    64.8454   998.6916  0.000e+00
      2.360    17.7485    17.7527     98.638  84.340601      3.357     7.6799     80.727    9.51337    9.49878 5.6046e+01     3.8213     1.7338    64.8277   998.6917  0.000e+00
      2.423    17.7489    17.7531     98.498  84.221722      3.447     7.6794     80.723    9.51329    9.49870 6.6896e+01     3.7811     1.7328    64.8425   998.6919  0.000e+00
      2.483    17.7486    17.7529     98.568  84.281162      3.532     7.6800     80.729    9.51334    9.49875 8.2980e+01     3.5521     1.7487    64.5863   998.6922  0.000e+00
      2.524    17.7491    17.7534     98.497  84.221723      3.591     7.6900     80.834    9.51324    9.49865 5.8642e+01     3.4864     1.7430    64.6781   998.6923  0.000e+00
      2.580    17.7498    17.7540     98.565  84.281162      3.669     7.6864     80.798    9.51312    9.49853 7.2821e+01     3.5097     1.7380    64.7596   998.6924  0.000e+00
      2.648    17.7496    17.7538     98.635  84.340603      3.767     7.6875     80.809    9.51315    9.49856 6.6925e+01     2.9267     1.7419    64.6959   998.6928  0.000e+00
      2.695    17.7491    17.7533     98.428  84.162284      3.833     7.7015     80.955    9.51326    9.49867 5.8655e+01     3.5839     1.7401    64.7255   998.6930  0.000e+00
      2.738    17.7490    17.7532     98.706  84.400044      3.895     7.6991     80.930    9.51327    9.49868 6.3837e+01     3.4694     1.7064    65.2719   998.6933  0.000e+00
      2.797    17.7494    17.7537     98.636  84.340604      3.978     7.6942     80.879    9.51318    9.49860 5.4942e+01     3.3698     1.7252    64.9669   998.6935  0.000e+00
      2.838    17.7490    17.7532     98.497  84.221725      4.037     7.6865     80.797    9.51327    9.49868 6.7336e+01     3.3041     1.7410    64.7107   998.6937  0.000e+00
      2.883    17.7488    17.7531     98.567  84.281165      4.100     7.6904     80.838    9.51330    9.49872 5.7789e+01     3.2320     1.7333    64.8351   998.6940  0.000e+00
      2.930    17.7489    17.7531     98.567  84.281165      4.167     7.6914     80.849    9.51329    9.49870 6.2264e+01     3.1493     1.7393    64.7374   998.6942  0.000e+00
      2.971    17.7486    17.7529     98.568  84.281166      4.226     7.7034     80.975    9.51334    9.49875 5.4499e+01     3.2469     1.7329    64.8410   998.6944  0.000e+00
      3.020    17.7484    17.7526     98.499  84.221727      4.295     7.6976     80.913    9.51339    9.49880 5.2924e+01     3.3316     1.7501    64.5626   998.6947  0.000e+00
      3.065    17.7486    17.7529     98.637  84.340606      4.360     7.6972     80.910    9.51334    9.49875 5.2143e+01     3.4525     1.7674    64.2843   998.6949  0.000e+00
      3.111    17.7494    17.7537     98.496  84.221727      4.425     7.6964     80.903    9.51319    9.49860 6.1655e+01     3.2363     1.7424    64.6870   998.6949  0.000e+00
      3.166    17.7499    17.7542     98.565  84.281167      4.504     7.7057     81.001    9.51308    9.49850 5.2878e+01     3.4906     1.7341    64.8218   998.6951  0.000e+00
      3.234    17.7498    17.7541     98.635  84.340607      4.599     7.7029     80.971    9.51310    9.49851 5.8745e+01     3.1684     1.7397    64.7314   998.6954  0.000e+00
      3.288    17.7495    17.7538     98.635  84.340608      4.677     7.6967     80.905    9.51317    9.49858 4.7286e+01     3.1599     1.7207    65.0394   998.6957  0.000e+00
      3.326    17.7496    17.7538     98.635  84.340608      4.731     7.6958     80.896    9.51315    9.49856 5.0394e+01     3.1515     1.7229    65.0039   998.6959  0.000e+00
      3.378    17.7493    17.7536     98.636  84.340609      4.805     7.6841     80.773    9.51320    9.49861 4.7462e+01     3.1599     1.7069    65.2645   998.6962  0.000e+00
      3.440    17.7487    17.7530     98.707  84.400049      4.893     7.6924     80.859    9.51332    9.49873 4.4555e+01     3.1684     1.7142    65.1445   998.6966  0.000e+00
      3.506    17.7487    17.7530     98.568  84.281170      4.987     7.6961     80.899    9.51332    9.49873 4.3753e+01     3.2108     1.7130    65.1653   998.6968  0.000e+00
      3.561    17.7489    17.7531     98.567  84.281170      5.064     7.6957     80.894    9.51329    9.49870 4.4603e+01     3.2235     1.7104    65.2067   998.6970  0.000e+00
      3.620    17.7487    17.7530     98.568  84.281171      5.149     7.6994     80.933    9.51332    9.49873 4.2573e+01     3.2532     1.7097    65.2186   998.6973  0.000e+00
      3.688    17.7483    17.7525     98.708  84.400051      5.245     7.6936     80.871    9.51340    9.49881 4.0502e+01     3.4037     1.7157    65.1208   998.6978  0.000e+00
      3.746    17.7484    17.7526     98.707  84.400052      5.329     7.7100     81.044    9.51339    9.49880 4.0956e+01     3.4567     1.7156    65.1223   998.6980  0.000e+00
      3.795    17.7491    17.7534     98.567  84.281172      5.398     7.7152     81.100    9.51324    9.49865 3.9452e+01     3.3846     1.7149    65.1342   998.6980  0.000e+00
      3.841    17.7485    17.7528     98.568  84.281173      5.463     7.7208     81.158    9.51335    9.49877 3.8397e+01     3.2320     1.7304    64.8825   998.6984  0.000e+00
      3.894    17.7486    17.7529     98.568  84.281173      5.539     7.7150     81.096    9.51334    9.49875 3.7141e+01     3.2575     1.7382    64.7551   998.6986  0.000e+00
      3.932    17.7490    17.7532     98.567  84.281173      5.593     7.7096     81.041    9.51327    9.49868 3.6817e+01     3.3147     1.7401    64.7255   998.6987  0.000e+00
      3.965    17.7489    17.7531     98.567  84.281174      5.639     7.7038     80.979    9.51329    9.49870 3.6938e+01     3.3444     1.7244    64.9802   998.6989  0.000e+00
      4.010    17.7487    17.7530     98.568  84.281174      5.704     7.7051     80.992    9.51332    9.49873 3.5249e+01     3.4610     1.7426    64.6841   998.6991  0.000e+00
      4.059    17.7485    17.7527     98.568  84.281174      5.774     7.6996     80.934    9.51337    9.49878 3.4532e+01     3.5161     1.7405    64.7181   998.6994  0.000e+00
      4.124    17.7491    17.7533     98.567  84.281175      5.866     7.6828     80.759    9.51325    9.49867 3.3718e+01     3.4058     1.7125    65.1727   998.6996  0.000e+00
      4.179    17.7493    17.7536     98.636  84.340615      5.944     7.6815     80.746    9.51320    9.49861 3.2945e+01     3.4143     1.7313    64.8677   998.6998  0.000e+00
      4.210    17.7491    17.7533     98.567  84.281176      5.988     7.6781     80.709    9.51325    9.49867 3.2134e+01     3.3465     1.7401    64.7255   998.6999  0.000e+00
      4.255    17.7490    17.7532     98.498  84.221736      6.052     7.6804     80.734    9.51327    9.49868 3.2723e+01     3.2956     1.7200    65.0513   998.7001  0.000e+00
      4.315    17.7498    17.7540     98.565  84.281176      6.137     7.6840     80.773    9.51312    9.49853 3.0792e+01     3.3274     1.7147    65.1371   998.7003  0.000e+00
      4.350    17.7498    17.7540     98.565  84.281176      6.188     7.6833     80.765    9.51312    9.49853 3.0484e+01     3.3422     1.7176    65.0897   998.7005  0.000e+00
      4.379    17.7493    17.7536     98.566  84.281177      6.228     7.6810     80.741    9.51320    9.49861 2.9662e+01     3.3211     1.7463    64.6248   998.7007  0.000e+00
      4.431    17.7494    17.7537     98.636  84.340617      6.302     7.6916     80.852    9.51318    9.49860 2.8194e+01     3.3656     1.7283    64.9165   998.7009  0.000e+00
      4.500    17.7496    17.7538     98.566  84.281178      6.401     7.6936     80.873    9.51315    9.49856 2.7705e+01     3.3465     1.7185    65.0749   998.7012  0.000e+00
      4.536    17.7493    17.7536     98.636  84.340618      6.452     7.6909     80.844    9.51320    9.49861 2.7572e+01     3.3656     1.6997    65.3814   998.7014  0.000e+00
      4.553    17.7491    17.7533     98.636  84.340618      6.477     7.6932     80.868    9.51325    9.49866 2.7851e+01     3.4164     1.7254    64.9639   998.7015  0.000e+00
      4.600    17.7491    17.7534     98.567  84.281179      6.543     7.6898     80.832    9.51324    9.49865 2.6208e+01     3.4419     1.7293    64.9002   998.7017  0.000e+00
      4.663    17.7488    17.7531     98.637  84.340619      6.633     7.6860     80.792    9.51330    9.49871 2.5652e+01     3.3910     1.7202    65.0483   998.7021  0.000e+00
      4.710    17.7486    17.7529     98.707  84.400059      6.699     7.6771     80.698    9.51333    9.49875 2.5680e+01     3.5161     1.7091    65.2289   998.7023  0.000e+00
      4.748    17.7488    17.7531     98.567  84.281180      6.753     7.6786     80.715    9.51330    9.49872 2.4656e+01     3.3995     1.7020    65.3444   998.7024  0.000e+00
      4.820    17.7492    17.7535     98.636  84.340620      6.855     7.6708     80.634    9.51322    9.49863 2.3912e+01     3.4016     1.7679    64.2769   998.7027  0.000e+00
      4.903    17.7489    17.7531     98.567  84.281181      6.974     7.6757     80.684    9.51329    9.49870 2.2979e+01     3.5436     1.7313    64.8677   998.7031  0.000e+00
      4.958    17.7482    17.7525     98.499  84.221742      7.051     7.6706     80.629    9.51342    9.49884 2.2428e+01     3.5055     1.7211    65.0335   998.7035  0.000e+00
      5.000    17.7483    17.7525     98.638  84.340622      7.112     7.6647     80.567    9.51340    9.49882 2.2135e+01     3.3931     1.7356    64.7981   998.7037  0.000e+00
      5.052    17.7485    17.7528     98.568  84.281182      7.186     7.6711     80.635    9.51335    9.49877 2.1440e+01     3.5415     1.7533    64.5123   998.7038  0.000e+00
      5.104    17.7481    17.7524     98.708  84.400063      7.260     7.6725     80.649    9.51344    9.49885 2.0880e+01     3.4398     1.7258    64.9565   998.7042  0.000e+00
      5.126    17.7477    17.7519     98.709  84.400063      7.291     7.6668     80.588    9.51352    9.49893 2.0889e+01     3.4970     1.7233    64.9965   998.7044  0.000e+00
      5.128    17.7479    17.7522     98.639  84.340623      7.294     7.6779     80.706    9.51347    9.49888 2.0852e+01     3.4249     1.7276    64.9269   998.7043  0.000e+00
      5.144    17.7479    17.7522     98.639  84.340623      7.317     7.6671     80.592    9.51347    9.49888 2.0802e+01     3.3910     1.7072    65.2600   998.7044  0.000e+00
      5.191    17.7472    17.7514     98.571  84.281184      7.383     7.6586     80.501    9.51363    9.49904 1.9868e+01     3.5330     1.7093    65.2245   998.7047  0.000e+00
      5.269    17.7464    17.7506     98.503  84.221745      7.495     7.6644     80.561    9.51378    9.49919 1.8918e+01     2.8208     1.7198    65.0542   998.7052  0.000e+00
      5.349    17.7468    17.7511     98.572  84.281185      7.607     7.6641     80.559    9.51369    9.49911 1.8340e+01     3.0370     1.7760    64.1466   998.7055  0.000e+00
      5.426    17.7475    17.7518     98.709  84.400065      7.717     7.6657     80.577    9.51355    9.49897 1.7837e+01     2.9776     1.7579    64.4368   998.7058  0.000e+00
      5.500    17.7475    17.7518     98.709  84.400066      7.822     7.6700     80.621    9.51355    9.49897 1.7333e+01     3.0561     1.7612    64.3850   998.7061  0.000e+00
      5.558    17.7481    17.7524     98.639  84.340626      7.906     7.6690     80.612    9.51344    9.49885 1.6884e+01     3.2278     1.7319    64.8573   998.7062  0.000e+00
      5.591    17.7483    17.7525     98.569  84.281187      7.952     7.6741     80.666    9.51341    9.49882 1.6588e+01     3.3062     1.7648    64.3257   998.7063  0.000e+00
      5.630    17.7473    17.7516     98.640  84.340627      8.008     7.6818     80.746    9.51359    9.49900 1.6311e+01     3.2808     1.7693    64.2547   998.7067  0.000e+00
      5.697    17.7466    17.7508     98.573  84.281188      8.103     7.6916     80.847    9.51374    9.49916 1.5760e+01     3.4143     1.7229    65.0039   998.7071  0.000e+00
      5.760    17.7469    17.7512     98.641  84.340628      8.193     7.6903     80.834    9.51367    9.49909 1.5335e+01     3.3868     1.7315    64.8647   998.7074  0.000e+00
      5.797    17.7473    17.7515     98.641  84.340628      8.246     7.6971     80.907    9.51361    9.49902 1.5181e+01     3.3338     1.7462    64.6263   998.7075  0.000e+00
      5.838    17.7470    17.7513     98.572  84.281189      8.304     7.6984     80.919    9.51366    9.49907 1.4827e+01     3.3380     1.7223    65.0128   998.7077  0.000e+00
      5.893    17.7464    17.7506     98.712  84.400069      8.382     7.7013     80.949    9.51377    9.49919 1.4551e+01     3.4567     1.7404    64.7196   998.7081  0.000e+00
      5.949    17.7457    17.7500     98.575  84.281190      8.462     7.6990     80.924    9.51391    9.49933 1.4106e+01     3.3147     1.7017    65.3489   998.7084  0.000e+00
      5.996    17.7462    17.7505     98.573  84.281190      8.528     7.7039     80.976    9.51381    9.49922 1.3958e+01     3.3762     1.7177    65.0883   998.7085  0.000e+00
      6.046    17.7461    17.7504     98.574  84.281191      8.599     7.7014     80.949    9.51383    9.49924 1.3434e+01     3.3889     1.7343    64.8188   998.7088  0.000e+00
      6.118    17.7468    17.7511     98.572  84.281191      8.701     7.7055     80.994    9.51369    9.49911 1.3009e+01     3.5224     1.7423    64.6900   998.7090  0.000e+00
      6.173    17.7474    17.7517     98.571  84.281191      8.780     7.7017     80.955    9.51357    9.49899 1.2775e+01     3.4207     1.7262    64.9506   998.7091  0.000e+00
      6.207    17.7469    17.7512     98.572  84.281192      8.828     7.6986     80.922    9.51368    9.49909 1.2658e+01     3.4822     1.7233    64.9979   998.7094  0.000e+00
      6.237    17.7461    17.7504     98.713  84.400072      8.871     7.6880     80.809    9.51382    9.49924 1.2501e+01     3.5182     1.7325    64.8484   998.7097  0.000e+00
      6.274    17.7463    17.7506     98.504  84.221753      8.924     7.6807     80.733    9.51380    9.49921 1.2167e+01     3.5267     1.7380    64.7581   998.7098  0.000e+00
      6.325    17.7459    17.7501     98.644  84.340633      8.996     7.6770     80.693    9.51388    9.49929 1.1956e+01     3.5055     1.7373    64.7699   998.7101  0.000e+00
      6.374    17.7451    17.7494     98.576  84.281194      9.066     7.6746     80.666    9.51403    9.49945 1.1800e+01     3.5966     1.7560    64.4679   998.7105  0.000e+00
      6.427    17.7449    17.7492     98.576  84.281194      9.142     7.6754     80.674    9.51406    9.49948 1.1431e+01     3.5182     1.7595    64.4116   998.7107  0.000e+00
      6.501    17.7454    17.7496     98.575  84.281195      9.247     7.6751     80.672    9.51398    9.49939 1.1016e+01     3.5712     1.7359    64.7921   998.7110  0.000e+00
      6.555    17.7454    17.7497     98.645  84.340635      9.324     7.6846     80.771    9.51396    9.49938 1.0856e+01     3.5076     1.7385    64.7507   998.7112  0.000e+00
      6.574    17.7446    17.7488     98.647  84.340635      9.350     7.6793     80.715    9.51413    9.49955 1.0854e+01     3.3974     1.7543    64.4960   998.7115  0.000e+00
      6.602    17.7443    17.7486     98.647  84.340636      9.390     7.6853     80.778    9.51418    9.49960 1.0596e+01     3.4652     1.7193    65.0631   998.7117  0.000e+00
      6.656    17.7446    17.7488     98.508  84.221756      9.468     7.6824     80.748    9.51413    9.49955 1.0405e+01     3.5224     1.7728    64.1984   998.7118  0.000e+00
      6.702    17.7446    17.7488     98.647  84.340636      9.533     7.6724     80.642    9.51413    9.49955 1.0100e+01     3.3995     1.7389    64.7448   998.7121  0.000e+00
      6.760    17.7440    17.7482     98.648  84.340637      9.614     7.6674     80.589    9.51425    9.49966 9.7251e+00     3.3698     1.7467    64.6189   998.7124  0.000e+00
      6.824    17.7441    17.7483     98.509  84.221758      9.706     7.6673     80.587    9.51424    9.49965 9.5209e+00     3.3719     1.7302    64.8854   998.7127  0.000e+00
      6.907    17.7442    17.7485     98.578  84.281198      9.825     7.6678     80.593    9.51420    9.49961 9.1134e+00     3.6348     1.7642    64.3361   998.7130  0.000e+00
      6.984    17.7429    17.7472     98.581  84.281199      9.934     7.6679     80.592    9.51445    9.49987 8.8463e+00     3.6369     1.7282    64.9180   998.7136  0.000e+00
      7.031    17.7417    17.7460     98.723  84.400080     10.001     7.6670     80.581    9.51469    9.50010 8.7195e+00     3.6433     1.7537    64.5049   998.7141  0.000e+00
      7.071    17.7412    17.7455     98.585  84.281200     10.058     7.6844     80.762    9.51479    9.50021 8.5457e+00     3.5754     1.7344    64.8173   998.7143  0.000e+00
      7.142    17.7404    17.7446     98.448  84.162322     10.158     7.6725     80.636    9.51496    9.50038 8.2699e+00     3.5564     1.7251    64.9683   998.7148  0.000e+00
      7.203    17.7390    17.7432     98.590  84.281202     10.245     7.6667     80.573    9.51523    9.50065 8.1087e+00     3.6072     1.7520    64.5330   998.7153  0.000e+00
      7.235    17.7354    17.7396     98.529  84.221764     10.291     7.6594     80.490    9.51594    9.50136 8.0680e+00     3.6602     1.7593    64.4146   998.7161  0.000e+00
      7.277    17.7196    17.7238     98.496  84.162329     10.350     7.6487     80.352    9.51904    9.50447 7.8504e+00     3.7175     1.7333    64.8351   998.7192  0.000e+00
      7.355    17.7155    17.7198     98.262  83.954293     10.461     7.6418     80.272    9.51984    9.50527 7.5473e+00     3.7323     1.6941    65.4732   998.7202  0.000e+00
      7.419    17.6805    17.6848     97.472  83.211332     10.552     7.6292     80.082    9.52674    9.51220 7.4099e+00     3.7132     1.7638    64.3420   998.7265  0.000e+00
      7.460    17.5369    17.5411     96.963  82.498144     10.611     7.6302     79.855    9.55505    9.54062 7.3245e+00     3.6200     1.7416    64.7003   998.7525  0.000e+00
      7.513    17.2915    17.2956     95.875  81.101546     10.687     7.6386     79.537    9.60381    9.58954 7.1363e+00     3.6369     1.7413    64.7048   998.7962  0.000e+00
      7.574    16.9366    16.9406     95.376  80.002205     10.773     7.6388     78.954    9.67507    9.66106 6.9727e+00     3.7026     1.7337    64.8292   998.8584  0.000e+00
      7.620    16.5230    16.5270     95.431  79.259484     10.838     7.6028     77.903    9.75931    9.74557 6.8969e+00     3.7980     1.7414    64.7033   998.9293  0.000e+00
      7.648    16.1525    16.1564     96.038  79.051592     10.878     7.4009     75.244    9.83588    9.82239 6.8144e+00     3.6115     1.7492    64.5774   998.9912  0.000e+00
      7.713    15.8813    15.8851     95.912  78.427713     10.971     6.9701     70.457    9.89265    9.87933 6.5513e+00     3.8722     1.7447    64.6500   999.0356  0.000e+00
      7.793    15.6555    15.6593     94.326  76.704580     11.084     6.2925     63.302    9.94039    9.92722 6.3704e+00     4.5315     1.7772    64.1273   999.0715  0.000e+00
      7.840    15.3093    15.3129     93.221  75.159861     11.152     5.4089     54.011   10.01439   10.00143 6.2722e+00     5.2099     1.8392    63.1412   999.1255  0.000e+00
      7.873    14.8489    14.8524     93.739  74.714378     11.198     4.3668     43.174   10.11426   10.10157 6.1729e+00     5.2947     1.8615    62.7903   999.1957  0.000e+00
      7.939    14.4932    14.4967     93.079  73.526256     11.292     3.2432     31.819   10.19267   10.18017 5.9371e+00     5.6127     1.8909    62.3299   999.2480  0.000e+00
      8.003    14.1444    14.1478     92.619  72.516417     11.383     2.1122     20.565   10.27064   10.25832 5.8049e+00     5.8670     1.8888    62.3624   999.2980  0.000e+00
      8.046    13.8054    13.8087     92.931  72.130363     11.444     1.0686     10.327   10.34741   10.33526 5.6892e+00     5.5915     1.8929    62.2988   999.3453  0.000e+00
      8.087    13.5304    13.5336     93.401  71.981916     11.502     0.2317      2.225   10.41045   10.39843 5.6028e+00     5.4664     1.9080    62.0648   999.3827  0.000e+00
      8.149    13.3153    13.3185     93.112  71.358231     11.590    -0.3537     -3.382   10.46025   10.44833 5.3197e+00     5.4664     1.9196    61.8842   999.4113  0.000e+00
      8.229    13.1032    13.1064     93.202  71.031570     11.705    -0.6972     -6.633   10.50976   10.49793 5.0576e+00     5.4515     1.9216    61.8531   999.4391  0.000e+00
      8.287    12.8956    12.8987     93.399  70.794013     11.787    -0.8613     -8.158   10.55864   10.54690 4.9352e+00     5.2544     1.9486    61.4370   999.4657  0.000e+00
      8.348    12.7137    12.7168     93.810  70.764355     11.873    -0.8827     -8.326   10.60177   10.59010 4.7033e+00     5.2968     1.9728    61.0669   999.4888  0.000e+00
      8.431    12.5652    12.5682     94.458  70.972294     11.992    -0.8341     -7.841   10.63724   10.62562 4.3988e+00     5.9624     1.9539    61.3556   999.5076  0.000e+00
      8.513    12.4272    12.4302     96.155  71.982177     12.108    -0.7227     -6.773   10.67033   10.65875 4.1793e+00     7.4697     2.1323    58.6801   999.5251  0.000e+00
      8.565    12.2636    12.2666     97.614  72.754490     12.182    -0.6102     -5.697   10.70982   10.69830 4.0365e+00     8.4978     2.2209    57.3949   999.5453  0.000e+00
      8.620    12.1052    12.1081     98.631  73.200084     12.261    -0.4998     -4.650   10.74832   10.73686 3.7991e+00     9.0596     2.2909    56.3985   999.5644  0.000e+00
      8.691    11.9819    11.9848     99.562  73.645680     12.361    -0.4103     -3.807   10.77847   10.76704 3.5084e+00    10.5160     2.4550    54.1316   999.5792  0.000e+00
      8.751    11.8766    11.8795    100.289  73.972461     12.446    -0.3293     -3.048   10.80431   10.79291 3.3494e+00    13.2083     2.5067    53.4372   999.5917  0.000e+00
      8.784    11.7737    11.7765    101.257  74.477482     12.494    -0.2490     -2.299   10.82968   10.81831 3.2662e+00    15.5613     2.5724    52.5666   999.6037  0.000e+00
      8.820    11.6745    11.6773    101.612  74.536918     12.545    -0.1739     -1.602   10.85425   10.84291 3.0474e+00    17.3717     2.5340    53.0730   999.6150  0.000e+00
      8.876    11.5955    11.5982    101.831  74.536938     12.624    -0.0985     -0.906   10.87391   10.86259 2.8720e+00    19.5446     2.6487    51.5731   999.6239  0.000e+00
      8.927    11.5277    11.5304    101.776  74.358718     12.697    -0.0265     -0.243   10.89082   10.87951 2.7305e+00    20.7954     2.7162    50.7099   999.6315  0.000e+00
      8.976    11.4621    11.4648    101.511  74.031973     12.766     0.0326      0.299   10.90723   10.89594 2.5982e+00    21.9740     2.7658    50.0851   999.6387  0.000e+00
      9.042    11.3880    11.3907    101.188  73.645825     12.860     0.0816      0.747   10.92584   10.91456 2.3999e+00    24.4183     2.8913    48.5378   999.6468  0.000e+00
      9.112    11.3402    11.3429    100.789  73.259678     12.961     0.1318      1.205   10.93785   10.92659 2.2147e+00    26.1587     2.9050    48.3720   999.6521  0.000e+00
      9.162    11.2576    11.2603    101.101  73.319107     13.032     0.1686      1.539   10.95867   10.94743 2.0709e+00    26.7862     2.9299    48.0714   999.6611  0.000e+00
      9.208    11.1850    11.1876    101.509  73.467646     13.097     0.2015      1.836   10.97704   10.96581 1.9792e+00    27.1021     3.0338    46.8395   999.6691  0.000e+00
      9.260    11.1609    11.1636    101.207  73.200313     13.171     0.2159      1.966   10.98315   10.97192 1.8342e+00    27.6469     3.2140    44.7755   999.6717  0.000e+00
      9.295    11.1372    11.1399    100.945  72.962687     13.220     0.2312      2.103   10.98917   10.97795 1.8470e+00    27.9945     3.3062    43.7554   999.6742  0.000e+00
      9.307    11.1037    11.1063    101.121  73.022103     13.237     0.2501      2.274   10.99768   10.98646 1.8146e+00    28.5076     3.3345    43.4474   999.6778  0.000e+00
      9.336    11.0772    11.0799    101.071  72.932998     13.279     0.2726      2.478   11.00440   10.99319 1.7465e+00    28.9379     3.3398    43.3897   999.6806  0.000e+00
      9.390    11.0584    11.0611    100.712  72.635967     13.356     0.2725      2.475   11.00920   10.99799 1.5810e+00    28.8489     3.4071    42.6656   999.6826  0.000e+00
      9.436    11.0226    11.0252    100.524  72.428053     13.421     0.2797      2.538   11.01834   11.00714 1.5434e+00    29.3449     3.4587    42.1193   999.6864  0.000e+00
      9.453    10.9692    10.9718    100.591  72.368660     13.446     0.2898      2.627   11.03197   11.02078 1.5421e+00    28.7111     3.4269    42.4554   999.6920  0.000e+00
      9.474    10.9342    10.9368    100.771  72.428074     13.475     0.2857      2.588   11.04091   11.02973 1.5133e+00    28.6962     3.3754    43.0047   999.6956  0.000e+00
      9.500    10.9187    10.9214    100.567  72.249860     13.512     0.2947      2.668   11.04488   11.03370 1.4732e+00    28.2277     3.3595    43.1764   999.6972  0.000e+00
      9.534    10.8905    10.8931    100.646  72.249867     13.560     0.2858      2.586   11.05212   11.04094 1.3515e+00    27.6872     3.4034    42.7056   999.7003  0.000e+00
      9.586    10.8634    10.8660    100.556  72.131063     13.635     0.2816      2.546   11.05907   11.04790 1.2065e+00    26.7502     3.4740    41.9579   999.7032  0.000e+00
      9.642    10.8430    10.8456    100.614  72.131068     13.715     0.2767      2.501   11.06430   11.05314 1.0972e+00    25.4273     3.5539    41.1287   999.7055  0.000e+00
      9.711    10.8147    10.8173    100.859  72.249886     13.812     0.2749      2.483   11.07158   11.06042 1.0172e+00    24.5306     3.6503    40.1486   999.7087  0.000e+00
      9.787    10.8153    10.8179    101.106  72.428104     13.920     0.2689      2.429   11.07141   11.06025 8.9152e-01    23.7781     3.7548    39.1136   999.7091  0.000e+00
      9.848    10.8271    10.8297    100.907  72.309290     14.007     0.2627      2.373   11.06839   11.05722 8.3070e-01    22.5549     3.7922    38.7494   999.7081  0.000e+00
      9.891    10.8292    10.8318    100.735  72.190479     14.069     0.2582      2.332   11.06784   11.05668 7.7455e-01    21.5310     3.7574    39.0884   999.7081  0.000e+00
      9.941    10.7871    10.7897    100.771  72.131083     14.140     0.2507      2.263   11.07867   11.06751 7.4074e-01    20.0916     3.7007    39.6466   999.7125  0.000e+00
     10.013    10.7394    10.7420    100.781  72.041987     14.242     0.2480      2.236   11.09097   11.07982 6.4949e-01    19.4725     3.6835    39.8169   999.7175  0.000e+00
     10.077    10.6711    10.6737    101.348  72.309328     14.333     0.2391      2.152   11.10859   11.09745 6.4892e-01    18.8090     3.6500    40.1515   999.7246  0.000e+00
     10.119    10.5923    10.5948    101.656  72.368753     14.393     0.2386      2.144   11.12902   11.11789 5.6292e-01    17.8741     3.6014    40.6431   999.7326  0.000e+00
     10.173    10.5329    10.5354    102.035  72.517283     14.469     0.2300      2.064   11.14445   11.13332 5.1995e-01    17.1216     3.5713    40.9496   999.7386  0.000e+00
     10.242    10.4902    10.4927    102.158  72.517293     14.568     0.2312      2.073   11.15555   11.14443 4.8767e-01    16.7018     3.5382    41.2901   999.7430  0.000e+00
     10.298    10.4464    10.4489    102.913  72.962858     14.646     0.2348      2.103   11.16696   11.15584 5.2200e-01    16.1146     3.5087    41.5951   999.7477  0.000e+00
     10.345    10.4002    10.4027    103.634  73.378728     14.714     0.2300      2.057   11.17901   11.16790 4.5840e-01    15.0886     3.4836    41.8572   999.7525  0.000e+00
     10.400    10.3591    10.3616    103.881  73.467852     14.792     0.2380      2.127   11.18977   11.17866 4.3858e-01    14.1558     3.4716    41.9831   999.7567  0.000e+00
     10.465    10.3216    10.3241    104.243  73.646090     14.884     0.2308      2.061   11.19959   11.18849 4.4263e-01    12.5744     3.4086    42.6493   999.7606  0.000e+00
     10.528    10.2852    10.2877    104.730  73.913445     14.974     0.2212      1.973   11.20913   11.19803 3.6425e-01    11.4615     3.3865    42.8862   999.7644  0.000e+00
     10.580    10.2478    10.2502    105.010  74.032276     15.048     0.2297      2.047   11.21897   11.20788 3.5342e-01    10.2001     3.3695    43.0684   999.7682  0.000e+00
     10.634    10.2159    10.2184    105.105  74.032284     15.125     0.2210      1.968   11.22736   11.21627 3.5342e-01     9.0554     3.3551    43.2238   999.7714  0.000e+00
     10.709    10.1951    10.1975    105.251  74.091701     15.232     0.2090      1.861   11.23285   11.22176 3.1199e-01     8.3685     3.2748    44.1004   999.7737  0.000e+00
     10.761    10.1805    10.1829    105.211  74.032294     15.306     0.2073      1.845   11.23671   11.22562 3.4336e-01     7.7792     3.2222    44.6837   999.7753  0.000e+00
     10.786    10.1701    10.1725    105.326  74.091707     15.342     0.2011      1.790   11.23945   11.22836 3.3807e-01     7.1369     3.1929    45.0124   999.7764  0.000e+00
     10.821    10.1650    10.1675    105.510  74.210532     15.391     0.2047      1.821   11.24078   11.22969 2.8798e-01     6.8062     3.2018    44.9132   999.7770  0.000e+00
     10.894    10.1624    10.1648    105.434  74.151121     15.495     0.2000      1.779   11.24147   11.23038 2.7290e-01     6.3779     3.2018    44.9132   999.7776  0.000e+00
     10.955    10.1560    10.1585    105.537  74.210535     15.581     0.1983      1.764   11.24316   11.23207 2.6397e-01     5.8946     3.2189    44.7207   999.7785  0.000e+00
     10.989    10.1476    10.1501    105.689  74.299654     15.631     0.1945      1.729   11.24537   11.23428 2.7942e-01     5.6763     3.2200    44.7089   999.7795  0.000e+00
     11.023    10.1395    10.1419    105.883  74.418481     15.679     0.1856      1.650   11.24751   11.23642 2.3970e-01     5.4537     3.2345    44.5475   999.7804  0.000e+00
     11.080    10.1331    10.1356    105.986  74.477895     15.759     0.1880      1.671   11.24919   11.23811 2.4096e-01     5.3095     3.2454    44.4261   999.7813  0.000e+00
     11.148    10.1272    10.1297    106.089  74.537309     15.856     0.1853      1.647   11.25075   11.23967 2.2082e-01     5.1569     3.2534    44.3373   999.7822  0.000e+00
     11.199    10.1196    10.1220    106.112  74.537311     15.929     0.1840      1.635   11.25278   11.24169 2.1742e-01     4.8728     3.2646    44.2129   999.7831  0.000e+00
     11.241    10.1107    10.1131    106.308  74.656139     15.989     0.1712      1.521   11.25513   11.24405 1.9038e-01     4.6121     3.3065    43.7524   999.7842  0.000e+00
     11.284    10.1019    10.1044    106.250  74.596729     16.049     0.1698      1.509   11.25744   11.24636 1.8303e-01     4.5464     3.3171    43.6369   999.7852  0.000e+00
     11.352    10.0930    10.0954    106.193  74.537319     16.147     0.1784      1.585   11.25982   11.24874 1.7364e-01     4.6481     7.6937    14.6107   999.7863  0.000e+00
     11.417    10.0836    10.0861    106.136  74.477909     16.239     0.1692      1.503   11.26229   11.25121 1.3329e-01     4.6481     3.3391    43.3971   999.7874  0.000e+00
     11.457    10.0739    10.0763    106.250  74.537324     16.295     0.1725      1.531   11.26488   11.25380 1.3224e-01     4.4912     3.3346    43.4459   999.7885  0.000e+00
     11.497    10.0655    10.0679    106.276  74.537327     16.352     0.1688      1.498   11.26710   11.25602 1.4941e-01     4.3428     3.3383    43.4059   999.7894  0.000e+00
     11.548    10.0591    10.0615    106.465  74.656154     16.425     0.1746      1.549   11.26880   11.25772 1.1282e-01     4.2008     3.3783    42.9736   999.7903  0.000e+00
     11.598    10.0540    10.0564    106.480  74.656155     16.496     0.1757      1.559   11.27014   11.25905 1.4714e-01     4.2432     5.4861    25.3719   999.7910  0.000e+00
     11.627    10.0504    10.0528    106.491  74.656157     16.538     0.1708      1.515   11.27109   11.26001 1.4093e-01     4.1648     3.3439    43.3452   999.7914  0.000e+00
     11.660    10.0492    10.0516    106.495  74.656157     16.584     0.1758      1.560   11.27141   11.26033 1.2365e-01     4.1415     3.3249    43.5510   999.7917  0.000e+00
     11.737    10.0479    10.0504    106.626  74.745277     16.694     0.1618      1.436   11.27175   11.26066 1.1285e-01     4.0164     3.3789    42.9677   999.7922  0.000e+00
     11.809    10.0439    10.0463    106.596  74.715572     16.796     0.1684      1.494   11.27283   11.26175 1.1272e-01     4.1309     3.4106    42.6286   999.7929  0.000e+00
     11.860    10.0390    10.0415    106.653  74.745280     16.868     0.1561      1.385   11.27411   11.26303 1.1454e-01     4.1542     3.3898    42.8507   999.7936  0.000e+00
     11.914    10.0350    10.0374    106.622  74.715575     16.946     0.1537      1.363   11.27518   11.26409 1.5548e-01     4.0058     3.3786    42.9706   999.7942  0.000e+00
     11.987    10.0309    10.0334    106.762  74.804697     17.049     0.1456      1.291   11.27626   11.26517 1.1300e-01     4.0651     3.3690    43.0743   999.7949  0.000e+00
     12.047    10.0271    10.0295    106.859  74.864111     17.136     0.1464      1.298   11.27727   11.26618 1.1280e-01     3.9697     3.3988    42.7545   999.7956  0.000e+00
     12.089    10.0239    10.0263    107.038  74.982940     17.194     0.1380      1.224   11.27811   11.26703 1.1295e-01     4.0376     3.3741    43.0195   999.7961  0.000e+00
     12.128    10.0215    10.0239    107.130  75.042355     17.250     0.1402      1.243   11.27877   11.26769 1.1280e-01     3.9316     3.3748    43.0121   999.7966  0.000e+00
     12.195    10.0188    10.0212    107.138  75.042356     17.346     0.1445      1.281   11.27946   11.26838 1.1277e-01     3.7917     3.3902    42.8463   999.7971  0.000e+00
     12.282    10.0166    10.0190    107.145  75.042357     17.469     0.1487      1.318   11.28006   11.26898 1.1282e-01     3.8531     3.3872    42.8788   999.7977  0.000e+00
     12.361    10.0139    10.0163    107.366  75.190894     17.582     0.1450      1.285   11.28077   11.26969 1.1300e-01     3.8277     3.4074    42.6627   999.7984  0.000e+00
     12.446    10.0102    10.0126    107.335  75.161188     17.703     0.1461      1.295   11.28176   11.27068 1.1275e-01     3.8319     3.3861    42.8907   999.7991  0.000e+00
     12.529    10.0054    10.0078    107.264  75.101775     17.820     0.1448      1.283   11.28303   11.27195 1.1302e-01     3.8680     3.3364    43.4267   999.7999  0.000e+00
     12.604    10.0013    10.0037    107.362  75.161191     17.927     0.1498      1.327   11.28413   11.27305 1.1282e-01     3.8298     3.3339    43.4533   999.8007  0.000e+00
     12.659     9.9979    10.0003    107.372  75.161192     18.005     0.1405      1.245   11.28502   11.27394 1.1290e-01     3.7302     3.3328    43.4652   999.8012  0.000e+00
     12.705     9.9952     9.9976    107.380  75.161193     18.070     0.1457      1.291   11.28573   11.27465 1.1272e-01     3.8425     3.3573    43.2001   999.8017  0.000e+00
     12.737     9.9926     9.9950    107.388  75.161194     18.117     0.1337      1.184   11.28642   11.27534 1.1282e-01     3.7302     3.3492    43.2875   999.8021  0.000e+00
     12.766     9.9905     9.9929    107.395  75.161195     18.157     0.1285      1.138   11.28699   11.27591 1.1309e-01     3.6878     3.3481    43.2993   999.8024  0.000e+00
     12.792     9.9895     9.9919    107.313  75.101781     18.194     0.1411      1.250   11.28726   11.27618 1.1277e-01     3.7429     3.3342    43.4504   999.8026  0.000e+00
     12.832     9.9889     9.9913    107.442  75.190903     18.251     0.1294      1.146   11.28741   11.27633 1.1285e-01     3.6836     3.3373    43.4163   999.8029  0.000e+00
     12.878     9.9875     9.9899    107.532  75.250318     18.318     0.1377      1.220   11.28778   11.27671 1.1300e-01     3.6284     3.3180    43.6266   999.8032  0.000e+00
     12.920     9.9860     9.9884    107.536  75.250319     18.376     0.1308      1.159   11.28818   11.27710 1.1282e-01     3.4928     3.3263    43.5362   999.8036  0.000e+00
     12.974     9.9852     9.9876    107.963  75.547395     18.453     0.1395      1.236   11.28838   11.27730 1.1292e-01     3.4949     3.3771    42.9869   999.8040  0.000e+00
     13.038     9.9850     9.9874    107.879  75.487980     18.545     0.1328      1.176   11.28843   11.27735 1.1302e-01     3.5076     3.3171    43.6369   999.8043  0.000e+00
     13.102     9.9836     9.9860    107.713  75.369150     18.636     0.1235      1.094   11.28881   11.27773 1.1285e-01     3.6030     3.3024    43.7968   999.8047  0.000e+00
     13.144     9.9808     9.9831    107.892  75.487982     18.695     0.1294      1.147   11.28957   11.27849 1.1280e-01     3.7069     3.2784    44.0604   999.8052  0.000e+00
     13.165     9.9781     9.9805    107.815  75.428567     18.725     0.1204      1.066   11.29028   11.27920 1.1280e-01     3.7111     3.3007    43.8161   999.8055  0.000e+00
     13.179     9.9776     9.9800    107.817  75.428568     18.746     0.1228      1.088   11.29041   11.27933 1.1309e-01     3.7535     3.3032    43.7879   999.8056  0.000e+00
     13.217     9.9792     9.9816    107.897  75.487983     18.800     0.1221      1.082   11.28998   11.27890 1.1287e-01     3.5818     3.2753    44.0944   999.8057  0.000e+00
     13.253     9.9785     9.9809    107.899  75.487983     18.851     0.1345      1.191   11.29016   11.27908 1.1290e-01     3.5585     3.2926    43.9049   999.8059  0.000e+00
     13.301     9.9767     9.9791    107.905  75.487984     18.919     0.1312      1.162   11.29065   11.27957 1.1287e-01     3.5203    12.1425     4.8045   999.8063  0.000e+00
     13.362     9.9755     9.9779    107.908  75.487985     19.005     0.1324      1.173   11.29096   11.27988 1.1282e-01     3.4928     3.2776    44.0693   999.8067  0.000e+00
     13.404     9.9742     9.9766    107.827  75.428570     19.065     0.1264      1.119   11.29131   11.28023 1.1287e-01     3.4101     3.2823    44.0174   999.8070  0.000e+00
     13.442     9.9727     9.9751    108.002  75.547401     19.119     0.1180      1.045   11.29170   11.28062 1.1282e-01     3.3719     3.2875    43.9612   999.8073  0.000e+00
     13.497     9.9730     9.9754    108.086  75.606817     19.197     0.1251      1.108   11.29162   11.28055 1.1282e-01     3.3698     3.2752    44.0959   999.8076  0.000e+00
     13.563     9.9726     9.9750    107.917  75.487987     19.291     0.1262      1.117   11.29174   11.28066 1.1287e-01     3.6030     3.2677    44.1788   999.8079  0.000e+00
     13.604     9.9714     9.9738    107.921  75.487987     19.350     0.1231      1.090   11.29206   11.28098 1.1267e-01     3.7132     3.2780    44.0648   999.8082  0.000e+00
     13.623     9.9703     9.9727    108.009  75.547403     19.376     0.1183      1.048   11.29234   11.28126 1.1272e-01     3.8086     3.2708    44.1448   999.8084  0.000e+00
     13.653     9.9699     9.9723    108.010  75.547404     19.419     0.1238      1.096   11.29245   11.28137 1.1285e-01     3.8828     3.3073    43.7435   999.8086  0.000e+00
     13.699     9.9705     9.9729    108.008  75.547404     19.484     0.1257      1.113   11.29229   11.28121 1.1282e-01     3.8213     3.2803    44.0396   999.8087  0.000e+00
     13.740     9.9700     9.9724    108.010  75.547404     19.543     0.1248      1.105   11.29243   11.28135 1.1282e-01     3.6624     3.2868    43.9686   999.8090  0.000e+00
     13.774     9.9688     9.9712    108.014  75.547405     19.591     0.1269      1.124   11.29275   11.28167 1.1280e-01     3.7535     3.2783    44.0619   999.8093  0.000e+00
     13.803     9.9678     9.9702    107.932  75.487990     19.632     0.1167      1.033   11.29302   11.28194 1.1295e-01     4.2559     3.2806    44.0367   999.8094  0.000e+00
     13.849     9.9673     9.9697    107.933  75.487990     19.697     0.1181      1.046   11.29314   11.28206 1.1290e-01     4.0673     3.2656    44.2025   999.8097  0.000e+00
     13.903     9.9666     9.9690    108.106  75.606822     19.775     0.1133      1.003   11.29333   11.28225 1.1290e-01     4.0885     3.2751    44.0974   999.8101  0.000e+00
     13.966     9.9655     9.9679    108.024  75.547407     19.864     0.1228      1.087   11.29362   11.28254 1.1292e-01     4.0545     3.2821    44.0204   999.8104  0.000e+00
     14.022     9.9639     9.9663    107.944  75.487992     19.944     0.1170      1.036   11.29405   11.28297 1.1282e-01     3.9295     3.2657    44.2010   999.8108  0.000e+00
     14.080     9.9631     9.9654    107.862  75.428578     20.026     0.1124      0.996   11.29428   11.28320 1.1295e-01     3.7853     3.2370    44.5194   999.8111  0.000e+00
     14.140     9.9618     9.9642    107.950  75.487994     20.111     0.1193      1.056   11.29462   11.28354 1.1290e-01     3.8977     3.2402    44.4838   999.8116  0.000e+00
     14.201     9.9603     9.9627    107.955  75.487994     20.198     0.1180      1.045   11.29501   11.28393 1.1267e-01     4.2474     3.2837    44.0026   999.8120  0.000e+00
     14.252     9.9595     9.9619    108.042  75.547410     20.270     0.1215      1.075   11.29522   11.28414 1.1292e-01     4.0715     3.2363    44.5268   999.8123  0.000e+00
     14.309     9.9589     9.9612    108.129  75.606827     20.352     0.1109      0.982   11.29539   11.28432 1.1272e-01     3.9803     3.2333    44.5608   999.8127  0.000e+00
     14.380     9.9582     9.9606    108.132  75.606827     20.453     0.1143      1.012   11.29557   11.28449 1.1277e-01     3.9040     3.2305    44.5919   999.8131  0.000e+00
     14.444     9.9569     9.9593    108.051  75.547412     20.544     0.1281      1.134   11.29591   11.28483 1.1290e-01     3.7747     3.2069    44.8555   999.8134  0.000e+00
     14.487     9.9555     9.9579    108.182  75.636537     20.606     0.1150      1.018   11.29628   11.28520 1.1263e-01     3.6751     3.1917    45.0257   999.8138  0.000e+00
     14.535     9.9549     9.9573    108.184  75.636537     20.674     0.1068      0.946   11.29644   11.28536 1.1305e-01     3.7111     3.2012    44.9191   999.8141  0.000e+00
     14.583     9.9537     9.9561    108.188  75.636538     20.742     0.1149      1.017   11.29676   11.28568 1.1277e-01     3.5330     3.1889    45.0583   999.8144  0.000e+00
     14.632     9.9522     9.9546    108.150  75.606830     20.811     0.1120      0.991   11.29715   11.28608 1.1277e-01     3.4504     4.5488    32.0717   999.8148  0.000e+00
     14.668     9.9514     9.9538    108.068  75.547415     20.862     0.1175      1.040   11.29739   11.28631 1.1309e-01     4.0694     3.2502    44.3728   999.8150  0.000e+00
     14.705     9.9506     9.9530    108.367  75.755371     20.915     0.1061      0.939   11.29757   11.28650 1.1300e-01     3.9337     3.2945    43.8842   999.8153  0.000e+00
     14.739     9.9474     9.9498    136.697  95.550671     20.964     0.1137      1.007   11.29749   11.28642 1.1267e-01     3.7895     3.2064    44.8614   999.8260  0.000e+00
     14.768     9.9438     9.9462    174.347 121.855534     21.004     0.1076      0.953   11.29719   11.28613 1.1280e-01     3.7450     3.2109    44.8111   999.8402  0.000e+00
     14.786     9.9454     9.9478    181.881 127.126572     21.031     0.1245      1.102   11.29651   11.28545 1.1267e-01     3.7853     3.2914    43.9182   999.8429  0.000e+00
     14.790     9.9483     9.9507    184.039 128.645599     21.037     0.1080      0.956   11.29568   11.28461 1.1282e-01     3.8213     3.2199    44.7104   999.8435  0.000e+00
     14.793     9.9509     9.9533    184.920 129.271113     21.040     0.1032      0.913   11.29495   11.28389 1.1277e-01     3.7535     3.2173    44.7385   999.8436  0.000e+00
     14.799     9.9517     9.9541    185.469 129.658347     21.049     0.1126      0.997   11.29472   11.28366 1.1290e-01     3.6751     3.2197    44.7119   999.8438  0.000e+00
