* Sea-Bird SBE19plus Data File:
* FileName = C:\Users\instrument\Desktop\Iola Rosa. CTD Casts\February 2024\Feb134.hex
* Software Version 1.59
* Temperature SN =  4268
* Conductivity SN =  4268
* System UpLoad Time = Feb 26 2024 13:52:23
* ds
* SeacatPlus V 1.6  SERIAL NO. 4268    26 Feb 2024  13:53:56
* vbatt = 12.7, vlith =  7.9, ioper =  61.6 ma, ipump =  85.0 ma,
* iext01 =  39.7 ma
* iext23 =  52.7 ma
*
* status = not logging
* number of scans to average = 1
* samples = 213406, free = 227668, casts = 152
* mode = profile, minimum cond freq = 2567, pump delay = 60 sec
* autorun = no, ignore magnetic switch = no
* battery type = alkaline, battery cutoff =  7.3 volts
* pressure sensor = strain gauge, range = 508.0
* SBE 38 = no, Gas Tension Device = no
* Ext Volt 0 = yes, Ext Volt 1 = yes, Ext Volt 2 = yes, Ext Volt 3 = yes
* echo commands = yes
* output format = raw HEX

* S>
*
* SeacatPlus V 1.6  SERIAL NO. 4268    26 Feb 2024  13:55:03
* temperature:  06-dec-05
*     TA0 = 1.161749e-03
*     TA1 = 2.891779e-04
*     TA2 = -3.393560e-06
*     TA3 = 2.889319e-07
*     TOFFSET = 0.000000e+00
* conductivity:  06-dec-05
*     G = -9.977815e-01
*     H = 1.528486e-01
*     I = -4.694078e-04
*     J = 6.039801e-05
*     CF0 = 2.561972e+03
*     CPCOR = -9.570000e-08
*     CTCOR = 3.250000e-06
*     CSLOPE = 1.000000e+00
* pressure S/N = 1980, range = 508 psia:  22-nov-05
*     PA0 = 1.166340e-01
*     PA1 = 1.562008e-03
*     PA2 = 7.521856e-12
*     PTCA0 = 5.244793e+05
*     PTCA1 = 6.705477e+00
*     PTCA2 = -1.525623e-01
*     PTCB0 = 2.485325e+01
*     PTCB1 = -3.500000e-04
*     PTCB2 = 0.000000e+00
*     PTEMPA0 = -7.187026e+01
*     PTEMPA1 = 4.819360e+01
*     PTEMPA2 = -2.287845e-02
*     POFFSET = 0.000000e+00
* volt 0: offset = -4.716333e-02, slope = 1.249825e+00
* volt 1: offset = -4.705000e-02, slope = 1.250722e+00
* volt 2: offset = -4.720000e-02, slope = 1.250906e+00
* volt 3: offset = 0.000000e+00, slope = 1.000000e+00
*     EXTFREQSF = 1.000004e+00
* dh
* cast 134 09 Feb 2024 09:02:10 samples 192647 to 193381, avg = 1, stop = mag switch

* S>
# nquan = 16
# nvalues = 580                                   
# units = specified
# name 0 = depFM: Depth [fresh water, m]
# name 1 = tv290C: Temperature [ITS-90, deg C]
# name 2 = tv268C: Temperature [IPTS-68, deg C]
# name 3 = specc: Specific Conductance [uS/cm]
# name 4 = c0uS/cm: Conductivity [uS/cm]
# name 5 = prdE: Pressure, Strain Gauge [psi]
# name 6 = sbeox0Mg/L: Oxygen, SBE 43 [mg/l]
# name 7 = sbeox0PS: Oxygen, SBE 43 [% saturation]
# name 8 = oxsolMg/L: Oxygen Saturation, Garcia & Gordon [mg/l]
# name 9 = oxsatMg/L: Oxygen Saturation, Weiss [mg/l]
# name 10 = par: PAR/Irradiance, Biospherical/Licor
# name 11 = flCM: Fluorescence, Chelsea Mini Chl Con [ug/l]
# name 12 = bat: Beam Attenuation, Chelsea/Seatech [1/m]
# name 13 = xmiss: Beam Transmission, Chelsea/Seatech [%]
# name 14 = density00: Density [density, kg/m^3]
# name 15 = flag:  0.000e+00
# span 0 =     -0.703,     16.017                 
# span 1 =     9.7894,    23.9626                 
# span 2 =     9.7918,    23.9684                 
# span 3 =      1.563,    265.511                 
# span 4 =   1.525912, 184.849615                 
# span 5 =     -1.000,     22.781                 
# span 6 =    -0.7182,     8.4958                 
# span 7 =     -6.946,    100.701                 
# span 8 =    8.42147,   11.34080                 
# span 9 =    8.40250,   11.32973                 
# span 10 = 1.0992e-01, 1.0837e+02                
# span 11 =    -0.3612,    30.2543                
# span 12 =     1.1655,     4.5664                
# span 13 =    31.9311,    74.7242                
# span 14 =   997.3447,   999.8917                
# span 15 = 0.0000e+00, 0.0000e+00                
# interval = seconds: 0.25
# start_time = Feb 09 2024 09:02:10 [Instrument's time stamp, header]
# bad_flag = -9.990e-29
# <Sensors count="7" >
#   <sensor Channel="1" >
#     <!-- Count, Temperature -->
#     <TemperatureSensor SensorID="58" >
#       <SerialNumber>4268</SerialNumber>
#       <CalibrationDate>06-Dec-05</CalibrationDate>
#       <A0>1.16174900e-003</A0>
#       <A1>2.89177900e-004</A1>
#       <A2>-3.39356000e-006</A2>
#       <A3>2.88931900e-007</A3>
#       <Slope>1.00000000</Slope>
#       <Offset>0.0000</Offset>
#     </TemperatureSensor>
#   </sensor>
#   <sensor Channel="2" >
#     <!-- Frequency 0, Conductivity -->
#     <ConductivitySensor SensorID="3" >
#       <SerialNumber>4268</SerialNumber>
#       <CalibrationDate>06-Dec-05</CalibrationDate>
#       <UseG_J>1</UseG_J>
#       <!-- Cell const and series R are applicable only for wide range sensors. -->
#       <SeriesR>0.0000</SeriesR>
#       <CellConst>2000.0000</CellConst>
#       <ConductivityType>0</ConductivityType>
#       <Coefficients equation="0" >
#         <A>0.00000000e+000</A>
#         <B>0.00000000e+000</B>
#         <C>0.00000000e+000</C>
#         <D>0.00000000e+000</D>
#         <M>0.0</M>
#         <CPcor>-9.57000000e-008</CPcor>
#       </Coefficients>
#       <Coefficients equation="1" >
#         <G>-9.97781500e-001</G>
#         <H>1.52848600e-001</H>
#         <I>-4.69407800e-004</I>
#         <J>6.03980100e-005</J>
#         <CPcor>-9.57000000e-008</CPcor>
#         <CTcor>3.2500e-006</CTcor>
#         <!-- WBOTC not applicable unless ConductivityType = 1. -->
#         <WBOTC>0.00000000e+000</WBOTC>
#       </Coefficients>
#       <Slope>1.00000000</Slope>
#       <Offset>0.00000</Offset>
#     </ConductivitySensor>
#   </sensor>
#   <sensor Channel="3" >
#     <!-- Count, Pressure, Strain Gauge -->
#     <PressureSensor SensorID="46" >
#       <SerialNumber>4268</SerialNumber>
#       <CalibrationDate>22-Nov-05</CalibrationDate>
#       <PA0>1.16634000e-001</PA0>
#       <PA1>1.56200800e-003</PA1>
#       <PA2>7.52185600e-012</PA2>
#       <PTEMPA0>-7.18702600e+001</PTEMPA0>
#       <PTEMPA1>4.81936000e+001</PTEMPA1>
#       <PTEMPA2>-2.28784500e-002</PTEMPA2>
#       <PTCA0>5.24479300e+005</PTCA0>
#       <PTCA1>6.70547700e+000</PTCA1>
#       <PTCA2>-1.52562300e-001</PTCA2>
#       <PTCB0>2.48532500e+001</PTCB0>
#       <PTCB1>-3.50000000e-004</PTCB1>
#       <PTCB2>0.00000000e+000</PTCB2>
#       <Offset>0.000000</Offset>
#     </PressureSensor>
#   </sensor>
#   <sensor Channel="4" >
#     <!-- A/D voltage 0, Oxygen, SBE 43 -->
#     <OxygenSensor SensorID="38" >
#       <SerialNumber>0268</SerialNumber>
#       <CalibrationDate>29-Feb-20</CalibrationDate>
#       <Use2007Equation>1</Use2007Equation>
#       <CalibrationCoefficients equation="0" >
#         <!-- Coefficients for Owens-Millard equation. -->
#         <Boc>0.0000</Boc>
#         <Soc>3.1260e-001</Soc>
#         <offset>-0.4337</offset>
#         <Pcor>1.35e-004</Pcor>
#         <Tcor>0.0023</Tcor>
#         <Tau>0.0</Tau>
#       </CalibrationCoefficients>
#       <CalibrationCoefficients equation="1" >
#         <!-- Coefficients for Sea-Bird equation - SBE calibration in 2007 and later. -->
#         <Soc>5.4910e-001</Soc>
#         <offset>-0.4386</offset>
#         <A>-3.6337e-003</A>
#         <B> 1.0518e-004</B>
#         <C>-1.0368e-006</C>
#         <D0> 2.5826e+000</D0>
#         <D1> 1.92634e-004</D1>
#         <D2>-4.64803e-002</D2>
#         <E> 3.6000e-002</E>
#         <Tau20> 1.2800</Tau20>
#         <H1>-3.3000e-002</H1>
#         <H2> 5.0000e+003</H2>
#         <H3> 1.4500e+003</H3>
#       </CalibrationCoefficients>
#     </OxygenSensor>
#   </sensor>
#   <sensor Channel="5" >
#     <!-- A/D voltage 1, Transmissometer, Chelsea/Seatech -->
#     <TransChelseaSeatechWetlabCStarSensor SensorID="59" >
#       <SerialNumber>CST-612PR</SerialNumber>
#       <CalibrationDate>6/27/02</CalibrationDate>
#       <M>19.4066</M>
#       <B>-1.1062</B>
#       <PathLength>0.250</PathLength>
#     </TransChelseaSeatechWetlabCStarSensor>
#   </sensor>
#   <sensor Channel="6" >
#     <!-- A/D voltage 2, Fluorometer, Chelsea Minitracka -->
#     <FluoroChelseaMinitrackaSensor SensorID="6" >
#       <SerialNumber>175011</SerialNumber>
#       <CalibrationDate>26-Mar-97</CalibrationDate>
#       <Vacetone>0.013</Vacetone>
#       <Vacetone100>3.612</Vacetone100>
#       <Offset>0.000</Offset>
#     </FluoroChelseaMinitrackaSensor>
#   </sensor>
#   <sensor Channel="7" >
#     <!-- A/D voltage 3, PAR/Irradiance, Biospherical/Licor -->
#     <PAR_BiosphericalLicorChelseaSensor SensorID="42" >
#       <SerialNumber>6404</SerialNumber>
#       <CalibrationDate>29-Nov-05</CalibrationDate>
#       <M>-0.76668700</M>
#       <B>-3.43363000</B>
#       <CalibrationConstant>3.42000000</CalibrationConstant>
#       <Multiplier>1.00000000</Multiplier>
#       <Offset>0.00000000</Offset>
#     </PAR_BiosphericalLicorChelseaSensor>
#   </sensor>
# </Sensors>
# datcnv_date = Jun 04 2024 15:04:43, 7.26.7.129 [datcnv_vars = 15]
# datcnv_in = C:\Users\ir64\OneDrive - The University of Waikato\Documents\Sampling\CTD casts\2024.02 CTD casts\2024.02 Hex files\Feb134.hex C:\Users\ir64\OneDrive - The University of Waikato\Documents\Sampling\CTD Documents\New 4268 & 6165 con files\20200723_SBE19_4268.xmlcon
# datcnv_skipover = 0
# datcnv_ox_hysteresis_correction = yes
# datcnv_ox_tau_correction = yes
# file_type = ascii
*END*
     -0.703    23.7408    23.7465      4.776   4.656137     -1.000     7.6864     90.873    8.45837    8.43953 1.0837e+02     0.5143     1.1655    74.7242   997.3677  0.000e+00
     -0.686    23.7397    23.7454      3.311   3.227722     -0.976     7.6883     90.894    8.45856    8.43972 7.9773e+01     0.4507     4.5664    31.9311   997.3678  0.000e+00
     -0.642    23.7414    23.7471      3.311   3.227722     -0.914     7.6893     90.908    8.45829    8.43945 3.2011e+01    -0.3612     2.6628    51.3910   997.3676  0.000e+00
     -0.591    23.7733    23.7790      3.495   3.410067     -0.840     7.6806     90.860    8.45323    8.43437 2.2716e+01    -0.3612     1.9471    61.4607   997.3600  0.000e+00
     -0.558    23.8007    23.8064      3.649   3.562022     -0.793     7.6848     90.956    8.44888    8.43001 1.6768e+01    -0.3612     1.6565    66.0921   997.3535  0.000e+00
     -0.569    23.8077    23.8134      3.151   3.075768     -0.809     7.7009     91.159    8.44778    8.42890 1.5729e+01    -0.3612     1.5956    67.1064   997.3517  0.000e+00
     -0.617    23.8091    23.8148      2.497   2.437577     -0.878     7.7210     91.399    8.44756    8.42868 1.4918e+01     0.5291     1.5903    67.1952   997.3510  0.000e+00
     -0.626    23.8195    23.8252      1.563   1.525912     -0.890     7.7357     91.591    8.44592    8.42704 1.7912e+01     1.2817     1.5877    67.2381   997.3483  0.000e+00
     -0.583    23.8245    23.8303      1.656   1.617077     -0.829     7.7474     91.738    8.44513    8.42624 2.8324e+01     1.5764     1.6719    65.8375   997.3473  0.000e+00
     -0.536    23.8306    23.8363     52.868  51.637931     -0.762     7.7491     91.778    8.44324    8.42435 6.0776e+01     2.0449     1.7244    64.9787   997.3607  0.000e+00
     -0.490    23.8495    23.8552     96.856  94.638641     -0.696     7.7483     91.812    8.43932    8.42041 6.1112e+01     2.1699     1.7407    64.7151   997.3709  0.000e+00
     -0.451    23.8870    23.8927     96.782  94.638629     -0.642     7.7404     91.783    8.43339    8.41447 6.2902e+01     2.4413     1.6801    65.7027   997.3618  0.000e+00
     -0.425    23.9141    23.9199     96.635  94.547033     -0.604     7.7344     91.758    8.42911    8.41017 6.4419e+01     2.8398     1.6445    66.2905   997.3552  0.000e+00
     -0.416    23.9291    23.9348     96.699  94.638617     -0.592     7.7103     91.497    8.42676    8.40781 6.4715e+01     3.0645     1.6166    66.7540   997.3516  0.000e+00
     -0.418    23.9382    23.9439     96.681  94.638614     -0.595     7.6744     91.087    8.42533    8.40637 6.6855e+01     3.2172     1.6075    66.9065   997.3494  0.000e+00
     -0.428    23.9429    23.9487     96.578  94.547024     -0.609     7.5971     90.177    8.42458    8.40562 6.6962e+01     3.2257     1.6197    66.7022   997.3481  0.000e+00
     -0.437    23.9448    23.9506     96.574  94.547023     -0.621     7.5121     89.172    8.42428    8.40532 7.0118e+01     3.2193     1.6301    66.5289   997.3476  0.000e+00
     -0.442    23.9451    23.9508     96.667  94.638612     -0.629     7.4755     88.738    8.42424    8.40527 7.3710e+01     3.2956     1.6165    66.7555   997.3476  0.000e+00
     -0.441    23.9450    23.9507     96.574  94.547023     -0.628     7.4549     88.493    8.42425    8.40529 7.8020e+01     3.3571     1.6123    66.8265   997.3476  0.000e+00
     -0.431    23.9445    23.9503     96.668  94.638612     -0.614     7.4177     88.050    8.42432    8.40536 8.5254e+01     3.3931     1.6016    67.0057   997.3477  0.000e+00
     -0.416    23.9444    23.9502     96.575  94.547023     -0.592     7.3582     87.344    8.42434    8.40538 9.2882e+01     3.3995     1.6023    66.9938   997.3478  0.000e+00
     -0.398    23.9448    23.9506     96.668  94.638612     -0.567     7.2764     86.374    8.42428    8.40532 9.6417e+01     3.4864     1.6147    66.7865   997.3478  0.000e+00
     -0.385    23.9444    23.9502     96.575  94.547024     -0.548     7.1875     85.319    8.42434    8.40538 9.9332e+01     3.4716     1.6093    66.8769   997.3479  0.000e+00
     -0.380    23.9444    23.9502     96.575  94.547024     -0.540     7.0946     84.216    8.42434    8.40538 9.8539e+01     3.5458     1.6045    66.9568   997.3480  0.000e+00
     -0.381    23.9445    23.9503     96.575  94.547024     -0.542     6.9784     82.836    8.42432    8.40536 9.6816e+01     3.4143     1.6035    66.9731   997.3479  0.000e+00
     -0.391    23.9444    23.9502     96.544  94.516494     -0.556     6.8470     81.277    8.42434    8.40538 9.6263e+01     3.3359     1.5919    67.1671   997.3479  0.000e+00
     -0.396    23.9434    23.9491     96.577  94.547024     -0.564     6.7292     79.876    8.42451    8.40555 9.4840e+01     3.2193     1.5961    67.0975   997.3482  0.000e+00
     -0.385    23.9426    23.9484     96.672  94.638613     -0.548     6.6503     78.939    8.42462    8.40566 9.6616e+01     3.1387     1.6097    66.8695   997.3484  0.000e+00
     -0.376    23.9395    23.9452     96.584  94.547025     -0.535     6.6076     78.428    8.42512    8.40616 9.9150e+01     3.1705     1.6154    66.7747   997.3492  0.000e+00
     -0.363    23.9318    23.9375     96.506  94.455440     -0.517     6.5648     77.908    8.42634    8.40738 1.0087e+02     3.2808     1.6152    66.7777   997.3511  0.000e+00
     -0.348    23.9265    23.9323     96.610  94.547030     -0.495     6.5332     77.526    8.42716    8.40821 1.0119e+02     3.2829     1.6167    66.7525   997.3525  0.000e+00
     -0.340    23.9238    23.9296     96.522  94.455442     -0.484     6.5367     77.563    8.42759    8.40864 1.0229e+02     3.2977     1.6088    66.8843   997.3532  0.000e+00
     -0.309    23.9220    23.9277     96.619  94.547031     -0.440     6.5811     78.087    8.42788    8.40893 9.3352e+01     3.2765     1.6119    66.8324   997.3538  0.000e+00
     -0.266    23.9219    23.9276     96.619  94.547032     -0.378     6.6339     78.713    8.42790    8.40895 9.5910e+01     3.2299     1.6056    66.9376   997.3540  0.000e+00
     -0.250    23.9226    23.9283     96.618  94.547032     -0.356     6.6739     79.190    8.42778    8.40883 9.5166e+01     3.2617     1.6088    66.8843   997.3539  0.000e+00
     -0.247    23.9239    23.9297     96.615  94.547031     -0.351     6.6870     79.347    8.42757    8.40862 9.3545e+01     3.2002     1.5958    67.1019   997.3536  0.000e+00
     -0.250    23.9274    23.9332     96.702  94.638619     -0.356     6.6692     79.141    8.42701    8.40806 9.0363e+01     3.2638     1.6178    66.7347   997.3528  0.000e+00
     -0.256    23.9340    23.9398     96.595  94.547028     -0.364     6.6421     78.829    8.42598    8.40703 8.7751e+01     3.1727     1.6114    66.8413   997.3511  0.000e+00
     -0.267    23.9395    23.9452     96.678  94.638615     -0.379     6.6278     78.667    8.42511    8.40616 8.8803e+01     3.1748     1.6125    66.8236   997.3497  0.000e+00
     -0.272    23.9433    23.9490     96.577  94.547025     -0.387     6.6270     78.664    8.42452    8.40556 8.7772e+01     3.3359     1.6097    66.8695   997.3487  0.000e+00
     -0.259    23.9454    23.9512     96.479  94.455436     -0.368     6.6327     78.734    8.42418    8.40522 8.9477e+01     3.3634     1.6011    67.0131   997.3482  0.000e+00
     -0.257    23.9459    23.9516     96.572  94.547024     -0.365     6.6374     78.790    8.42411    8.40515 9.0260e+01     3.2341     1.6196    66.7051   997.3482  0.000e+00
     -0.267    23.9425    23.9482     96.579  94.547025     -0.379     6.6369     78.779    8.42465    8.40569 9.0260e+01     3.1154     1.6198    66.7007   997.3490  0.000e+00
     -0.268    23.9347    23.9405     96.594  94.547028     -0.381     6.6453     78.868    8.42587    8.40691 9.1070e+01     3.1811     1.6096    66.8709   997.3509  0.000e+00
     -0.273    23.9287    23.9344     96.575  94.516500     -0.389     6.6571     78.998    8.42682    8.40787 8.7110e+01     3.1811     1.6040    66.9642   997.3523  0.000e+00
     -0.266    23.9270    23.9327     96.516  94.455442     -0.378     6.6700     79.150    8.42709    8.40814 9.1405e+01     3.2193     1.6073    66.9094   997.3527  0.000e+00
     -0.260    23.9298    23.9355     96.604  94.547029     -0.370     6.6823     79.300    8.42665    8.40769 9.3824e+01     3.0751     1.6070    66.9154   997.3521  0.000e+00
     -0.258    23.9319    23.9376     96.600  94.547029     -0.367     6.6928     79.427    8.42632    8.40737 9.5713e+01     3.1451     1.5992    67.0457   997.3516  0.000e+00
     -0.264    23.9350    23.9407     96.593  94.547028     -0.376     6.6731     79.198    8.42583    8.40687 9.8494e+01     3.2193     1.6079    66.9006   997.3508  0.000e+00
     -0.291    23.9310    23.9368     96.508  94.455441     -0.414     6.6464     78.876    8.42645    8.40750 1.0201e+02     3.2108     1.6255    66.6059   997.3516  0.000e+00
     -0.350    23.9211    23.9269     96.621  94.547031     -0.498     6.6231     78.584    8.42801    8.40906 9.7931e+01     3.2214     1.6002    67.0294   997.3538  0.000e+00
     -0.415    23.9118    23.9175     96.546  94.455445     -0.590     6.5526     77.735    8.42949    8.41054 9.5866e+01     3.2702     1.6202    66.6947   997.3558  0.000e+00
     -0.437    23.9069    23.9126     96.743  94.638623     -0.621     6.5026     77.134    8.43026    8.41132 9.0488e+01     3.1939     1.6183    66.7258   997.3570  0.000e+00
     -0.437    23.9122    23.9180     96.638  94.547033     -0.621     6.4448     76.456    8.42941    8.41047 8.6276e+01     3.1451     1.6263    66.5926   997.3557  0.000e+00
     -0.448    23.9205    23.9263     96.622  94.547031     -0.637     6.4362     76.366    8.42811    8.40916 8.2487e+01     3.0963     1.6354    66.4416   997.3536  0.000e+00
     -0.450    23.9252    23.9309     96.613  94.547029     -0.640     6.4854     76.957    8.42737    8.40842 7.8792e+01     3.1748     1.6172    66.7436   997.3524  0.000e+00
     -0.445    23.9288    23.9345     96.606  94.547028     -0.632     6.5981     78.299    8.42680    8.40785 2.8279e+01     3.2151     1.6080    66.8976   997.3515  0.000e+00
     -0.472    23.9270    23.9327     96.609  94.547028     -0.671     6.6703     79.153    8.42709    8.40814 2.7136e+01     3.2744     1.5916    67.1730   997.3519  0.000e+00
     -0.482    23.9248    23.9306     96.613  94.547029     -0.685     6.7375     79.947    8.42743    8.40848 2.6310e+01     3.3592     1.6001    67.0309   997.3524  0.000e+00
     -0.464    23.9248    23.9306     96.613  94.547029     -0.660     6.7456     80.044    8.42743    8.40848 2.6364e+01     3.3316     1.5979    67.0664   997.3524  0.000e+00
     -0.467    23.9281    23.9338     96.607  94.547028     -0.664     6.7447     80.037    8.42692    8.40797 2.6570e+01     3.3825     1.6105    66.8561   997.3516  0.000e+00
     -0.470    23.9318    23.9375     96.600  94.547027     -0.668     6.7575     80.196    8.42634    8.40738 2.5473e+01     3.3316     1.5919    67.1685   997.3507  0.000e+00
     -0.468    23.9356    23.9414     96.561  94.516496     -0.665     6.7400     79.993    8.42573    8.40677 2.6159e+01     3.3783     1.5948    67.1197   997.3497  0.000e+00
     -0.468    23.9379    23.9436     96.588  94.547025     -0.665     6.7062     79.595    8.42537    8.40641 2.6558e+01     3.4949     1.6212    66.6785   997.3492  0.000e+00
     -0.465    23.9397    23.9454     96.584  94.547024     -0.662     6.6366     78.772    8.42509    8.40613 2.6352e+01     3.4037     1.6362    66.4282   997.3488  0.000e+00
     -0.463    23.9417    23.9475     96.486  94.455436     -0.659     6.5664     77.941    8.42476    8.40580 2.6889e+01     3.3507     1.6170    66.7481   997.3482  0.000e+00
     -0.456    23.9434    23.9491     96.577  94.547023     -0.648     6.4837     76.962    8.42451    8.40555 2.6298e+01     3.4482     1.6268    66.5837   997.3479  0.000e+00
     -0.456    23.9440    23.9497     96.576  94.547023     -0.648     6.4091     76.077    8.42441    8.40545 2.5779e+01     3.6624     1.6134    66.8073   997.3477  0.000e+00
     -0.445    23.9441    23.9498     96.482  94.455435     -0.632     6.3271     75.105    8.42440    8.40543 2.9221e+01     3.6072     1.5951    67.1138   997.3477  0.000e+00
     -0.454    23.9448    23.9506     96.574  94.547023     -0.646     6.2354     74.017    8.42428    8.40532 2.8914e+01     3.6475     1.5943    67.1271   997.3475  0.000e+00
     -0.517    23.9449    23.9506     96.480  94.455434     -0.735     6.1616     73.142    8.42427    8.40531 1.9726e+01     3.7471     1.6069    66.9168   997.3472  0.000e+00
     -0.551    23.9445    23.9503     96.575  94.547022     -0.784     6.1027     72.442    8.42432    8.40536 1.9385e+01     3.7514     1.6024    66.9924   997.3472  0.000e+00
     -0.552    23.9454    23.9512     96.666  94.638610     -0.785     6.0520     71.840    8.42418    8.40522 2.0031e+01     3.7005     1.6089    66.8828   997.3470  0.000e+00
     -0.558    23.9476    23.9533     96.662  94.638610     -0.793     6.0325     71.612    8.42384    8.40488 1.9182e+01     3.7069     1.5807    67.3566   997.3464  0.000e+00
     -0.570    23.9497    23.9554     96.658  94.638609     -0.810     6.0669     72.023    8.42351    8.40455 1.6429e+01     3.5776     1.6134    66.8073   997.3459  0.000e+00
     -0.576    23.9514    23.9571     96.655  94.638608     -0.820     6.1426     72.924    8.42324    8.40428 5.1180e+01     3.5097     1.6438    66.3024   997.3454  0.000e+00
     -0.573    23.9530    23.9587     96.651  94.638608     -0.815     6.2647     74.376    8.42299    8.40402 5.6208e+01     3.5267     1.6147    66.7865   997.3450  0.000e+00
     -0.580    23.9539    23.9596     96.556  94.547019     -0.825     6.3959     75.936    8.42285    8.40388 5.4098e+01     3.5055     1.6228    66.6503   997.3447  0.000e+00
     -0.591    23.9535    23.9593     96.650  94.638608     -0.840     6.5026     77.201    8.42290    8.40394 5.3055e+01     3.4567     1.6265    66.5896   997.3448  0.000e+00
     -0.604    23.9493    23.9551     96.659  94.638609     -0.859     6.5612     77.891    8.42357    8.40460 5.4809e+01     3.3846     1.5866    67.2574   997.3458  0.000e+00
     -0.601    23.9402    23.9460     96.677  94.638612     -0.854     6.5833     78.140    8.42500    8.40604 5.5683e+01     3.5373     1.6239    66.6326   997.3481  0.000e+00
     -0.583    23.9323    23.9380     96.692  94.638614     -0.829     6.5842     78.139    8.42625    8.40729 5.6960e+01     3.5542     1.6094    66.8739   997.3501  0.000e+00
     -0.580    23.9280    23.9337     96.607  94.547027     -0.825     6.5805     78.089    8.42693    8.40798 5.9115e+01     3.5712     1.6392    66.3779   997.3511  0.000e+00
     -0.580    23.9259    23.9317     96.611  94.547028     -0.825     6.5776     78.051    8.42726    8.40831 5.9988e+01     3.4822     1.6291    66.5467   997.3517  0.000e+00
     -0.572    23.9253    23.9310     96.613  94.547028     -0.814     6.5725     77.990    8.42736    8.40841 5.8885e+01     3.3804     1.6102    66.8606   997.3518  0.000e+00
     -0.561    23.9244    23.9301     96.708  94.638617     -0.798     6.5048     77.186    8.42750    8.40855 4.7714e+01     3.3634     1.6180    66.7303   997.3521  0.000e+00
     -0.549    23.9230    23.9288     96.617  94.547029     -0.781     6.4510     76.545    8.42771    8.40876 2.1989e+01     3.3825     1.6046    66.9553   997.3525  0.000e+00
     -0.528    23.9220    23.9277     96.619  94.547029     -0.751     6.3854     75.765    8.42788    8.40893 2.6534e+01     3.3507     1.6022    66.9953   997.3529  0.000e+00
     -0.514    23.9213    23.9271     96.620  94.547030     -0.731     6.3171     74.954    8.42798    8.40903 2.2799e+01     3.5458     1.5962    67.0960   997.3531  0.000e+00
     -0.494    23.9213    23.9271     96.714  94.638618     -0.703     6.2311     73.934    8.42798    8.40903 2.2669e+01     3.5097     1.6079    66.9006   997.3532  0.000e+00
     -0.489    23.9209    23.9266     96.715  94.638619     -0.695     6.1559     73.041    8.42805    8.40910 1.9341e+01     3.3316     1.6063    66.9272   997.3533  0.000e+00
     -0.497    23.9163    23.9220     96.630  94.547031     -0.707     6.0826     72.164    8.42877    8.40983 1.9461e+01     3.1154     1.6012    67.0116   997.3544  0.000e+00
     -0.497    23.9067    23.9124     96.649  94.547034     -0.707     6.0650     71.943    8.43029    8.41135 2.1520e+01     3.0582     1.6047    66.9539   997.3568  0.000e+00
     -0.493    23.8974    23.9032     96.761  94.638626     -0.701     6.0906     72.234    8.43175    8.41282 2.1883e+01     3.4334     1.6042    66.9613   997.3591  0.000e+00
     -0.490    23.8909    23.8966     96.774  94.638628     -0.696     6.1221     72.598    8.43278    8.41385 2.2085e+01     3.9464     1.5963    67.0945   997.3607  0.000e+00
     -0.484    23.8864    23.8921     96.783  94.638629     -0.689     6.1528     72.957    8.43349    8.41457 2.1202e+01     4.0779     1.5838    67.3048   997.3619  0.000e+00
     -0.481    23.8838    23.8895     96.695  94.547042     -0.684     6.1804     73.281    8.43391    8.41498 2.1878e+01     4.1287     1.5792    67.3818   997.3625  0.000e+00
     -0.474    23.8828    23.8885     96.790  94.638630     -0.675     6.2028     73.544    8.43406    8.41513 2.2773e+01     4.0355     1.5823    67.3285   997.3628  0.000e+00
     -0.472    23.8826    23.8883     96.697  94.547042     -0.671     6.2168     73.710    8.43409    8.41517 2.2447e+01     3.8510     1.5890    67.2159   997.3628  0.000e+00
     -0.467    23.8833    23.8890     96.664  94.516512     -0.664     6.2204     73.754    8.43398    8.41505 2.2227e+01     3.7344     1.6066    66.9213   997.3626  0.000e+00
     -0.468    23.8840    23.8898     96.694  94.547042     -0.665     6.2193     73.742    8.43386    8.41494 2.2365e+01     3.7026     1.5793    67.3803   997.3625  0.000e+00
     -0.465    23.8842    23.8899     96.787  94.638630     -0.662     6.2128     73.665    8.43383    8.41491 2.2700e+01     3.7196     1.5939    67.1345   997.3625  0.000e+00
     -0.465    23.8841    23.8899     96.788  94.638630     -0.662     6.2108     73.642    8.43385    8.41492 2.2726e+01     3.5118     1.6169    66.7495   997.3625  0.000e+00
     -0.464    23.8839    23.8896     96.694  94.547042     -0.660     6.2100     73.632    8.43389    8.41497 2.2024e+01     3.4313     1.5919    67.1671   997.3625  0.000e+00
     -0.467    23.8839    23.8896     96.694  94.547042     -0.664     6.2117     73.651    8.43389    8.41497 2.1402e+01     3.3783     1.5937    67.1375   997.3625  0.000e+00
     -0.478    23.8839    23.8896     96.788  94.638630     -0.679     6.2124     73.660    8.43389    8.41496 2.2411e+01     3.4037     1.5979    67.0664   997.3625  0.000e+00
     -0.489    23.8842    23.8899     96.694  94.547041     -0.695     6.1976     73.485    8.43384    8.41491 2.2375e+01     3.4186     1.5846    67.2900   997.3623  0.000e+00
     -0.485    23.8846    23.8903     96.693  94.547041     -0.690     6.1723     73.186    8.43378    8.41485 2.0741e+01     3.3211     1.6112    66.8443   997.3623  0.000e+00
     -0.475    23.8861    23.8918     96.690  94.547041     -0.676     6.1366     72.765    8.43354    8.41461 2.1490e+01     3.2278     1.5917    67.1715   997.3619  0.000e+00
     -0.464    23.8884    23.8942     96.685  94.547040     -0.660     6.0861     72.168    8.43317    8.41424 2.4017e+01     3.1917     1.5968    67.0856   997.3614  0.000e+00
     -0.461    23.8920    23.8978     96.678  94.547039     -0.656     6.0275     71.478    8.43260    8.41367 2.0322e+01     3.1748     1.5952    67.1123   997.3605  0.000e+00
     -0.462    23.8955    23.9013     96.671  94.547038     -0.657     5.9619     70.705    8.43205    8.41312 2.0271e+01     3.3486     1.5889    67.2189   997.3597  0.000e+00
     -0.464    23.8999    23.9057     96.663  94.547037     -0.660     5.8960     69.929    8.43135    8.41242 1.9716e+01     3.2023     1.6294    66.5408   997.3586  0.000e+00
     -0.468    23.9053    23.9111     96.652  94.547035     -0.665     5.8269     69.117    8.43050    8.41157 2.0917e+01     3.0264     1.6015    67.0072   997.3572  0.000e+00
     -0.469    23.9106    23.9164     96.642  94.547033     -0.667     5.7707     68.457    8.42967    8.41073 2.1066e+01     2.9670     1.6272    66.5778   997.3559  0.000e+00
     -0.470    23.9140    23.9198     96.635  94.547032     -0.668     5.7214     67.877    8.42913    8.41018 2.0584e+01     3.0391     1.5846    67.2900   997.3551  0.000e+00
     -0.469    23.9155    23.9212     96.632  94.547032     -0.667     5.6744     67.321    8.42890    8.40996 2.0722e+01     3.3995     1.5614    67.6823   997.3547  0.000e+00
     -0.467    23.9151    23.9209     96.633  94.547032     -0.664     5.6363     66.868    8.42896    8.41001 2.0448e+01     3.6242     1.5649    67.6231   997.3548  0.000e+00
     -0.464    23.9144    23.9201     96.603  94.516503     -0.660     5.6048     66.493    8.42907    8.41013 2.1110e+01     3.6772     1.5768    67.4217   997.3550  0.000e+00
     -0.468    23.9149    23.9206     96.633  94.547032     -0.665     5.5730     66.116    8.42900    8.41006 2.0551e+01     3.6178     1.5823    67.3299   997.3549  0.000e+00
     -0.469    23.9157    23.9214     96.632  94.547032     -0.667     5.5444     65.779    8.42887    8.40993 2.0841e+01     3.5288     1.5808    67.3551   997.3547  0.000e+00
     -0.469    23.9158    23.9215     96.631  94.547032     -0.667     5.5094     65.363    8.42886    8.40991 2.1037e+01     3.4694     1.5844    67.2944   997.3546  0.000e+00
     -0.468    23.9148    23.9205     96.540  94.455444     -0.665     5.4775     64.984    8.42902    8.41007 2.1236e+01     3.3528     1.6081    66.8961   997.3549  0.000e+00
     -0.465    23.9131    23.9188     96.637  94.547033     -0.662     5.4434     64.577    8.42928    8.41034 1.9523e+01     3.4186     1.6119    66.8324   997.3553  0.000e+00
     -0.469    23.9087    23.9145     96.552  94.455446     -0.667     5.4217     64.315    8.42997    8.41103 1.8428e+01     3.3211     1.6040    66.9642   997.3563  0.000e+00
     -0.470    23.8999    23.9057     96.663  94.547037     -0.668     5.4299     64.402    8.43135    8.41242 1.8559e+01     3.2469     1.6249    66.6163   997.3585  0.000e+00
     -0.467    23.8917    23.8974     96.679  94.547039     -0.664     5.4581     64.726    8.43266    8.41373 1.9866e+01     3.0603     1.6125    66.8221   997.3606  0.000e+00
     -0.469    23.8857    23.8914     96.691  94.547041     -0.667     5.5077     65.306    8.43361    8.41468 1.8916e+01     3.0137     1.6329    66.4830   997.3621  0.000e+00
     -0.469    23.8819    23.8876     96.698  94.547042     -0.667     5.5265     65.525    8.43420    8.41528 1.8568e+01     2.9501     1.6032    66.9790   997.3630  0.000e+00
     -0.473    23.8797    23.8855     96.703  94.547043     -0.673     5.5499     65.800    8.43454    8.41562 1.8339e+01     3.1621     1.5971    67.0812   997.3635  0.000e+00
     -0.480    23.8783    23.8840     96.705  94.547043     -0.682     5.5666     65.996    8.43477    8.41585 1.9921e+01     3.3656     1.6173    66.7421   997.3638  0.000e+00
     -0.471    23.8771    23.8828     96.708  94.547044     -0.670     5.5786     66.136    8.43496    8.41603 1.8851e+01     3.6602     1.6455    66.2742   997.3642  0.000e+00
     -0.462    23.8762    23.8820     96.710  94.547044     -0.657     5.5865     66.229    8.43510    8.41618 1.9389e+01     3.6984     1.6085    66.8902   997.3644  0.000e+00
     -0.460    23.8751    23.8808     96.806  94.638633     -0.654     5.5980     66.364    8.43528    8.41636 1.8670e+01     3.5670     1.5961    67.0975   997.3647  0.000e+00
     -0.460    23.8742    23.8799     96.714  94.547045     -0.654     5.6034     66.427    8.43542    8.41650 1.9024e+01     3.4567     1.6116    66.8384   997.3649  0.000e+00
     -0.459    23.8737    23.8794     96.621  94.455457     -0.653     5.5961     66.340    8.43550    8.41658 1.9376e+01     3.5352     1.6078    66.9020   997.3650  0.000e+00
     -0.463    23.8739    23.8796     96.683  94.516515     -0.659     5.6007     66.395    8.43547    8.41655 2.0127e+01     3.6751     1.5904    67.1937   997.3650  0.000e+00
     -0.464    23.8738    23.8795     96.621  94.455457     -0.660     5.5919     66.291    8.43548    8.41656 2.0812e+01     3.5330     1.6119    66.8324   997.3650  0.000e+00
     -0.464    23.8738    23.8795     96.714  94.547045     -0.660     5.5749     66.088    8.43548    8.41656 1.9703e+01     3.3338     1.6038    66.9687   997.3650  0.000e+00
     -0.463    23.8739    23.8796     96.808  94.638633     -0.659     5.5536     65.836    8.43546    8.41654 1.9385e+01     3.3698     1.5952    67.1123   997.3650  0.000e+00
     -0.459    23.8741    23.8798     96.714  94.547045     -0.653     5.5248     65.495    8.43544    8.41652 1.9577e+01     3.4313     1.5922    67.1626   997.3650  0.000e+00
     -0.453    23.8751    23.8808     96.712  94.547044     -0.645     5.4956     65.150    8.43528    8.41636 1.9103e+01     3.4970     1.6105    66.8561   997.3647  0.000e+00
     -0.452    23.8763    23.8820     96.709  94.547044     -0.643     5.4635     64.771    8.43508    8.41616 1.9465e+01     3.4122     1.6244    66.6237   997.3644  0.000e+00
     -0.453    23.8773    23.8830     96.707  94.547044     -0.645     5.4354     64.439    8.43493    8.41600 1.9261e+01     3.3486     1.6125    66.8236   997.3642  0.000e+00
     -0.458    23.8773    23.8830     96.707  94.547044     -0.651     5.4072     64.105    8.43493    8.41600 1.9160e+01     3.3740     1.5949    67.1167   997.3642  0.000e+00
     -0.460    23.8765    23.8822     96.709  94.547044     -0.654     5.3767     63.743    8.43505    8.41613 1.9434e+01     3.3825     1.5854    67.2766   997.3644  0.000e+00
     -0.465    23.8761    23.8819     96.616  94.455456     -0.662     5.3466     63.385    8.43511    8.41619 1.9626e+01     3.2617     1.6031    66.9805   997.3644  0.000e+00
     -0.464    23.8756    23.8813     96.711  94.547044     -0.660     5.3147     63.006    8.43520    8.41628 1.9050e+01     3.2553     1.5951    67.1138   997.3646  0.000e+00
     -0.460    23.8751    23.8808     96.712  94.547044     -0.654     5.2875     62.683    8.43528    8.41636 1.9514e+01     3.1875     1.6300    66.5304   997.3647  0.000e+00
     -0.458    23.8749    23.8806     96.619  94.455456     -0.651     5.2574     62.326    8.43531    8.41639 1.9667e+01     3.0455     1.5972    67.0782   997.3647  0.000e+00
     -0.458    23.8748    23.8805     96.712  94.547044     -0.651     5.2271     61.966    8.43532    8.41640 1.9081e+01     3.0794     1.5903    67.1952   997.3648  0.000e+00
     -0.456    23.8747    23.8804     96.713  94.547045     -0.648     5.1975     61.616    8.43534    8.41642 1.6976e+01     3.1048     1.5780    67.4025   997.3648  0.000e+00
     -0.459    23.8742    23.8800     96.713  94.547045     -0.653     5.1694     61.282    8.43541    8.41649 2.0481e+01     3.3083     1.5972    67.0782   997.3649  0.000e+00
     -0.457    23.8737    23.8794     96.621  94.455457     -0.649     5.1454     60.997    8.43550    8.41658 1.9537e+01     3.5267     1.5990    67.0486   997.3650  0.000e+00
     -0.456    23.8732    23.8789     96.684  94.516516     -0.648     5.1199     60.694    8.43558    8.41666 1.9921e+01     3.5436     1.6026    66.9879   997.3652  0.000e+00
     -0.457    23.8731    23.8788     96.716  94.547045     -0.649     5.0995     60.452    8.43559    8.41667 1.8696e+01     3.5691     1.5799    67.3699   997.3652  0.000e+00
     -0.456    23.8728    23.8785     96.716  94.547045     -0.648     5.0780     60.197    8.43564    8.41672 1.8118e+01     3.6284     1.5849    67.2855   997.3653  0.000e+00
     -0.453    23.8720    23.8777     96.718  94.547045     -0.645     5.0610     59.995    8.43576    8.41684 1.7466e+01     3.7599     1.5908    67.1863   997.3655  0.000e+00
     -0.453    23.8715    23.8772     96.625  94.455457     -0.645     5.0421     59.770    8.43585    8.41693 1.8314e+01     3.8256     1.5765    67.4277   997.3656  0.000e+00
     -0.456    23.8709    23.8767     96.720  94.547046     -0.648     5.0286     59.610    8.43593    8.41702 1.8816e+01     3.8786     1.5695    67.5446   997.3658  0.000e+00
     -0.453    23.8708    23.8766     96.627  94.455458     -0.645     5.0151     59.449    8.43595    8.41703 1.8101e+01     3.7535     1.5885    67.2248   997.3658  0.000e+00
     -0.453    23.8705    23.8762     96.721  94.547046     -0.645     4.9974     59.239    8.43600    8.41709 1.7200e+01     3.6200     1.6005    67.0234   997.3659  0.000e+00
     -0.457    23.8697    23.8754     96.723  94.547046     -0.649     4.9822     59.058    8.43613    8.41721 1.7643e+01     3.6115     1.5982    67.0619   997.3661  0.000e+00
     -0.452    23.8693    23.8750     96.630  94.455458     -0.643     4.9708     58.922    8.43619    8.41727 1.7850e+01     3.5012     1.5983    67.0605   997.3661  0.000e+00
     -0.448    23.8691    23.8749     96.724  94.547046     -0.637     4.9530     58.711    8.43622    8.41730 1.7846e+01     3.5118     1.6361    66.4297   997.3662  0.000e+00
     -0.447    23.8688    23.8745     96.724  94.547046     -0.635     4.9364     58.514    8.43627    8.41736 1.7643e+01     3.6009     1.6010    67.0160   997.3663  0.000e+00
     -0.449    23.8683    23.8740     96.819  94.638635     -0.639     4.9157     58.268    8.43634    8.41743 1.7953e+01     3.5267     1.6014    67.0086   997.3665  0.000e+00
     -0.449    23.8678    23.8735     96.726  94.547047     -0.639     4.9058     58.151    8.43643    8.41751 1.7969e+01     3.2893     1.5993    67.0442   997.3666  0.000e+00
     -0.452    23.8676    23.8733     96.727  94.547047     -0.643     4.8918     57.984    8.43646    8.41754 1.7534e+01     3.1769     1.6285    66.5556   997.3666  0.000e+00
     -0.453    23.8675    23.8732     96.633  94.455459     -0.645     4.8812     57.858    8.43647    8.41756 1.7781e+01     3.2490     1.6199    66.6992   997.3666  0.000e+00
     -0.454    23.8672    23.8729     96.821  94.638635     -0.646     4.8703     57.729    8.43653    8.41761 1.7809e+01     3.5076     1.6104    66.8576   997.3667  0.000e+00
     -0.450    23.8669    23.8726     96.634  94.455459     -0.640     4.8572     57.574    8.43657    8.41766 1.7482e+01     3.6327     1.6227    66.6533   997.3667  0.000e+00
     -0.449    23.8663    23.8721     96.729  94.547047     -0.639     4.8440     57.416    8.43666    8.41774 1.7928e+01     3.6730     1.6005    67.0234   997.3669  0.000e+00
     -0.448    23.8663    23.8721     96.698  94.516518     -0.637     4.8293     57.242    8.43666    8.41774 1.7752e+01     3.6836     1.5708    67.5224   997.3669  0.000e+00
     -0.445    23.8663    23.8720     96.729  94.547047     -0.632     4.8102     57.016    8.43667    8.41775 1.7414e+01     3.7980     1.5862    67.2633   997.3669  0.000e+00
     -0.445    23.8658    23.8715     96.636  94.455459     -0.632     4.7928     56.808    8.43674    8.41783 1.7066e+01     3.9401     1.6063    66.9272   997.3670  0.000e+00
     -0.443    23.8654    23.8712     96.731  94.547047     -0.631     4.7844     56.709    8.43680    8.41788 1.7152e+01     4.0821     1.5994    67.0427   997.3672  0.000e+00
     -0.445    23.8653    23.8710     96.731  94.547048     -0.632     4.7695     56.532    8.43683    8.41791 1.7231e+01     4.2474     1.6120    66.8310   997.3672  0.000e+00
     -0.449    23.8653    23.8710     96.731  94.547047     -0.639     4.7561     56.373    8.43683    8.41791 1.7883e+01     4.1796     1.6167    66.7525   997.3672  0.000e+00
     -0.464    23.8650    23.8707     96.732  94.547047     -0.660     4.7454     56.246    8.43687    8.41795 1.8453e+01     3.9485     1.5957    67.1049   997.3672  0.000e+00
     -0.487    23.8644    23.8701     96.733  94.547047     -0.693     4.7431     56.218    8.43697    8.41805 1.7145e+01     3.8786     1.5944    67.1256   997.3672  0.000e+00
     -0.504    23.8629    23.8687     96.830  94.638636     -0.717     4.7517     56.319    8.43719    8.41828 1.7675e+01     3.8489     1.5995    67.0397   997.3675  0.000e+00
     -0.498    23.8607    23.8664     96.740  94.547048     -0.709     4.7765     56.610    8.43755    8.41864 1.8734e+01     3.7344     1.6069    66.9168   997.3681  0.000e+00
     -0.471    23.8597    23.8654     96.742  94.547049     -0.670     4.8041     56.936    8.43771    8.41879 1.6380e+01     3.6645     1.5980    67.0649   997.3684  0.000e+00
     -0.449    23.8600    23.8657     96.835  94.638638     -0.639     4.8338     57.288    8.43766    8.41875 1.6760e+01     3.4419     1.5887    67.2219   997.3685  0.000e+00
     -0.471    23.8598    23.8655     96.836  94.638637     -0.670     4.8466     57.440    8.43769    8.41878 1.7582e+01     3.3592     1.5978    67.0693   997.3685  0.000e+00
     -0.495    23.8592    23.8649     96.837  94.638637     -0.704     4.8583     57.578    8.43779    8.41888 1.8551e+01     3.3232     1.6180    66.7303   997.3685  0.000e+00
     -0.487    23.8570    23.8627     96.841  94.638638     -0.693     4.8674     57.683    8.43813    8.41922 2.0518e+01     3.3211     1.6175    66.7392   997.3691  0.000e+00
     -0.453    23.8539    23.8596     96.754  94.547051     -0.645     4.8814     57.846    8.43863    8.41972 1.7598e+01     3.3762     1.6025    66.9894   997.3700  0.000e+00
     -0.406    23.8523    23.8581     96.757  94.547052     -0.578     4.8877     57.918    8.43887    8.41996 1.8164e+01     3.2850     1.6066    66.9213   997.3705  0.000e+00
     -0.385    23.8529    23.8586     96.850  94.638640     -0.548     4.8818     57.850    8.43878    8.41987 1.7019e+01     3.2765     1.6215    66.6725   997.3705  0.000e+00
     -0.396    23.8532    23.8590     96.849  94.638640     -0.564     4.8929     57.981    8.43872    8.41982 1.7866e+01     3.2850     1.5979    67.0679   997.3704  0.000e+00
     -0.423    23.8537    23.8594     96.910  94.699699     -0.601     4.8842     57.879    8.43865    8.41974 1.9226e+01     3.3338     1.6079    66.9006   997.3702  0.000e+00
     -0.446    23.8541    23.8599     96.909  94.699699     -0.634     4.8848     57.887    8.43858    8.41967 1.9807e+01     3.3274     1.6105    66.8561   997.3700  0.000e+00
     -0.452    23.8524    23.8582     96.913  94.699699     -0.643     4.8730     57.744    8.43885    8.41994 2.0533e+01     3.4398     1.6352    66.4445   997.3704  0.000e+00
     -0.446    23.8498    23.8556     96.918  94.699700     -0.634     4.8691     57.695    8.43926    8.42036 2.0210e+01     3.4822     1.6089    66.8828   997.3710  0.000e+00
     -0.438    23.8486    23.8543     96.858  94.638641     -0.623     4.8602     57.589    8.43946    8.42056 1.8606e+01     3.4164     1.5873    67.2455   997.3714  0.000e+00
     -0.421    23.8482    23.8539     96.859  94.638641     -0.599     4.8843     57.874    8.43952    8.42061 1.8201e+01     3.4292     1.5960    67.0990   997.3715  0.000e+00
     -0.407    23.8487    23.8544     96.858  94.638641     -0.579     4.9142     58.228    8.43945    8.42054 1.8272e+01     3.7832     1.5918    67.1700   997.3715  0.000e+00
     -0.403    23.8490    23.8548     97.013  94.791290     -0.573     4.9856     59.075    8.43939    8.42048 1.8272e+01     3.6730     1.6095    66.8724   997.3715  0.000e+00
     -0.419    23.8487    23.8544     97.108  94.882879     -0.596     5.0515     59.856    8.43944    8.42054 1.9173e+01     3.4864     1.6114    66.8413   997.3715  0.000e+00
     -0.448    23.8486    23.8543     97.170  94.943939     -0.637     5.1523     61.050    8.43946    8.42055 2.1212e+01     3.3380     1.6087    66.8857   997.3714  0.000e+00
     -0.477    23.8477    23.8534     97.172  94.943939     -0.679     5.2114     61.749    8.43960    8.42069 5.1984e+01     3.2278     1.6015    67.0072   997.3715  0.000e+00
     -0.483    23.8454    23.8512     97.177  94.943940     -0.687     5.2725     62.470    8.43995    8.42105 2.5415e+01     3.2384     1.6056    66.9391   997.3720  0.000e+00
     -0.457    23.8435    23.8492     97.181  94.943941     -0.649     5.3313     63.165    8.44026    8.42136 1.6347e+01     3.2702     1.6019    66.9998   997.3726  0.000e+00
     -0.437    23.8426    23.8483     97.026  94.791292     -0.621     5.3922     63.885    8.44041    8.42151 1.6603e+01     3.3846     1.5941    67.1315   997.3729  0.000e+00
     -0.419    23.8425    23.8482     97.026  94.791292     -0.596     5.4902     65.046    8.44042    8.42152 1.4830e+01     3.3825     1.6104    66.8576   997.3730  0.000e+00
     -0.407    23.8427    23.8485     97.120  94.882881     -0.579     5.6114     66.483    8.44038    8.42148 1.4156e+01     3.3253     1.6119    66.8324   997.3730  0.000e+00
     -0.405    23.8427    23.8485     97.120  94.882881     -0.576     5.7481     68.103    8.44038    8.42148 2.3814e+01     3.1748     1.5950    67.1152   997.3730  0.000e+00
     -0.371    23.8425    23.8482     97.183  94.943942     -0.528     5.8752     69.608    8.44042    8.42152 4.5006e+01     3.2405     1.5898    67.2026   997.3733  0.000e+00
     -0.330    23.8424    23.8481     97.120  94.882882     -0.470     5.9731     70.768    8.44043    8.42153 7.8774e+01     3.3846     1.5890    67.2159   997.3734  0.000e+00
     -0.317    23.8441    23.8498     97.179  94.943942     -0.451     6.0464     71.638    8.44016    8.42126 8.9498e+01     3.6412     1.5942    67.1286   997.3731  0.000e+00
     -0.283    23.8525    23.8583     97.163  94.943940     -0.403     6.1501     72.878    8.43883    8.41992 9.5166e+01     3.6072     1.5884    67.2263   997.3712  0.000e+00
     -0.159    23.8635    23.8692     97.235  95.035528     -0.226     6.3231     74.944    8.43710    8.41819 2.6546e+01     3.5500     1.6041    66.9627   997.3691  0.000e+00
     -0.016    23.8744    23.8802     97.119  94.943935     -0.023     6.5179     77.269    8.43537    8.41645 4.3486e+01     3.4885     1.6133    66.8088   997.3670  0.000e+00
      0.051    23.8884    23.8942     97.185  95.035522      0.073     6.7213     79.701    8.43316    8.41423 4.7704e+01     3.4398     1.6165    66.7555   997.3639  0.000e+00
      0.035    23.8930    23.8988     97.176  95.035520      0.049     6.9088     81.931    8.43244    8.41350 6.5400e+01     3.1981     1.6070    66.9154   997.3627  0.000e+00
     -0.051    23.8939    23.8996     97.080  94.943929     -0.073     7.1157     84.386    8.43230    8.41336 8.5001e+01     3.2045     1.6048    66.9509   997.3620  0.000e+00
     -0.152    23.8938    23.8996     97.081  94.943928     -0.217     7.3095     86.685    8.43231    8.41338 7.9609e+01     3.0433     1.5954    67.1093   997.3616  0.000e+00
     -0.216    23.8934    23.8991     97.269  95.127109     -0.307     7.4295     88.107    8.43238    8.41344 7.9390e+01     3.0455     1.6039    66.9672   997.3615  0.000e+00
     -0.241    23.8998    23.9055     97.069  94.943925     -0.343     7.4430     88.277    8.43137    8.41244 7.5626e+01     3.1472     1.6104    66.8576   997.3597  0.000e+00
     -0.247    23.9146    23.9203     97.039  94.943921     -0.351     7.4080     87.887    8.42903    8.41009 7.6620e+01     3.1430     1.6099    66.8665   997.3561  0.000e+00
     -0.238    23.9234    23.9291     97.115  95.035508     -0.338     7.3762     87.524    8.42764    8.40869 7.4919e+01     3.2193     1.5991    67.0471   997.3540  0.000e+00
     -0.208    23.9261    23.9318     97.110  95.035508     -0.296     7.3404     87.103    8.42722    8.40827 7.6287e+01     3.1727     1.6329    66.4830   997.3534  0.000e+00
     -0.172    23.9217    23.9274     97.119  95.035509     -0.245     7.3013     86.632    8.42791    8.40896 4.9123e+01     3.0518     1.6166    66.7540   997.3547  0.000e+00
     -0.109    23.9188    23.9246     97.125  95.035511     -0.156     7.2549     86.078    8.42837    8.40942 5.3654e+01     2.9755     1.6010    67.0146   997.3557  0.000e+00
     -0.043    23.9178    23.9236     97.033  94.943921     -0.062     7.1970     85.388    8.42852    8.40958 5.2306e+01     3.0539     1.6049    66.9494   997.3562  0.000e+00
     -0.007    23.9179    23.9237     97.033  94.943922     -0.010     7.1279     84.568    8.42851    8.40956 5.1192e+01     3.2023     1.5941    67.1315   997.3563  0.000e+00
      0.017    23.9176    23.9234     97.096  95.004982      0.024     7.0448     83.583    8.42855    8.40961 5.0771e+01     3.1557     1.6070    66.9154   997.3565  0.000e+00
      0.032    23.9146    23.9203     97.039  94.943923      0.046     6.9464     82.411    8.42903    8.41009 5.4210e+01     3.1387     1.6010    67.0146   997.3573  0.000e+00
      0.036    23.9122    23.9179     97.044  94.943924      0.051     6.8371     81.110    8.42942    8.41047 5.3629e+01     3.2702     1.5936    67.1389   997.3579  0.000e+00
      0.029    23.9122    23.9180     97.044  94.943924      0.041     6.7264     79.796    8.42940    8.41046 5.5074e+01     3.1960     1.5995    67.0397   997.3579  0.000e+00
      0.030    23.9177    23.9235     97.033  94.943922      0.043     6.6190     78.531    8.42854    8.40959 5.6570e+01     3.1727     1.5969    67.0842   997.3565  0.000e+00
      0.038    23.9276    23.9334     96.857  94.791270      0.054     6.5322     77.515    8.42698    8.40803 5.6415e+01     3.1197     1.5987    67.0531   997.3541  0.000e+00
      0.049    23.9367    23.9425     96.840  94.791267      0.069     6.4591     76.661    8.42555    8.40659 5.7327e+01     3.2532     1.5922    67.1626   997.3519  0.000e+00
      0.058    23.9430    23.9488     96.921  94.882855      0.082     6.4177     76.179    8.42456    8.40560 5.7895e+01     3.2278     1.5830    67.3181   997.3504  0.000e+00
      0.065    23.9462    23.9519     96.914  94.882854      0.093     6.4095     76.086    8.42406    8.40510 5.8777e+01     3.2977     1.6032    66.9790   997.3496  0.000e+00
      0.080    23.9487    23.9544     96.909  94.882853      0.113     6.4299     76.331    8.42366    8.40470 5.4247e+01     3.3846     1.6133    66.8102   997.3491  0.000e+00
      0.113    23.9510    23.9568     96.811  94.791263      0.160     6.4705     76.817    8.42330    8.40433 5.3433e+01     3.3083     1.6015    67.0072   997.3486  0.000e+00
      0.163    23.9542    23.9599     96.711  94.699673      0.232     6.5287     77.512    8.42280    8.40384 5.2366e+01     3.2893     1.5763    67.4306   997.3480  0.000e+00
      0.203    23.9572    23.9630     96.799  94.791262      0.288     6.5967     78.324    8.42232    8.40335 5.0725e+01     3.1705     1.5918    67.1700   997.3475  0.000e+00
      0.234    23.9583    23.9641     96.890  94.882852      0.334     6.6544     79.011    8.42215    8.40318 4.9746e+01     3.0539     1.5940    67.1330   997.3474  0.000e+00
      0.265    23.9594    23.9651     96.888  94.882851      0.377     6.6744     79.250    8.42198    8.40301 4.9000e+01     2.9162     1.5911    67.1819   997.3473  0.000e+00
      0.297    23.9594    23.9651     96.795  94.791262      0.423     6.6668     79.160    8.42198    8.40301 4.8530e+01     2.9691     1.6210    66.6814   997.3474  0.000e+00
      0.323    23.9592    23.9650     96.701  94.699673      0.460     6.6222     78.630    8.42201    8.40304 4.7846e+01     3.2045     1.5995    67.0397   997.3475  0.000e+00
      0.349    23.9585    23.9642     96.796  94.791263      0.496     6.5571     77.856    8.42212    8.40315 4.6880e+01     3.3041     1.5922    67.1626   997.3478  0.000e+00
      0.406    23.9582    23.9640     96.703  94.699674      0.577     6.4714     76.838    8.42216    8.40319 4.4250e+01     3.4631     1.5918    67.1700   997.3481  0.000e+00
      0.483    23.9602    23.9660     96.637  94.638615      0.687     6.3922     75.900    8.42185    8.40288 4.1710e+01     3.3910     1.6210    66.6814   997.3479  0.000e+00
      0.549    23.9618    23.9676     96.790  94.791264      0.780     6.3258     75.114    8.42160    8.40262 4.1567e+01     3.3550     1.6064    66.9242   997.3479  0.000e+00
      0.610    23.9626    23.9684     96.632  94.638615      0.868     6.2907     74.698    8.42147    8.40250 3.9541e+01     3.3316     1.5985    67.0575   997.3479  0.000e+00
      0.686    23.9620    23.9678     96.696  94.699676      0.976     6.2755     74.517    8.42157    8.40260 3.7050e+01     3.2193     1.5758    67.4380   997.3484  0.000e+00
      0.752    23.9597    23.9654     96.545  94.547029      1.070     6.3010     74.817    8.42194    8.40297 3.6830e+01     3.1833     1.5664    67.5979   997.3492  0.000e+00
      0.793    23.9525    23.9583     96.372  94.363856      1.127     6.4929     77.085    8.42306    8.40410 3.6202e+01     3.0455     1.5816    67.3418   997.3511  0.000e+00
      0.826    23.9387    23.9444     96.680  94.638625      1.174     6.8562     81.377    8.42524    8.40628 3.5594e+01     3.1917     1.5694    67.5476   997.3548  0.000e+00
      0.861    23.9266    23.9324     96.360  94.302806      1.224     7.2770     86.352    8.42715    8.40820 3.4557e+01     3.1536     1.5882    67.2293   997.3578  0.000e+00
      0.890    23.9183    23.9240     96.439  94.363867      1.266     7.6801     91.121    8.42847    8.40952 3.3458e+01     3.1981     1.5705    67.5283   997.3600  0.000e+00
      0.926    23.9140    23.9197     96.541  94.455457      1.316     8.0115     95.045    8.42914    8.41020 3.3344e+01     3.3634     1.5799    67.3699   997.3612  0.000e+00
      0.975    23.9106    23.9164     96.392  94.302812      1.387     8.2563     97.944    8.42967    8.41073 3.2195e+01     3.4398     1.5945    67.1241   997.3622  0.000e+00
      1.027    23.8965    23.9023     96.232  94.119643      1.460     8.4232     99.897    8.43190    8.41297 3.1372e+01     3.4398     1.5802    67.3640   997.3659  0.000e+00
      1.067    23.8662    23.8719     96.292  94.119653      1.518     8.4958    100.701    8.43669    8.41778 3.0965e+01     3.3825     1.5882    67.2307   997.3735  0.000e+00
      1.102    23.8529    23.8586     96.662  94.455477      1.568     8.4599    100.250    8.43879    8.41988 3.0284e+01     3.2744     1.5829    67.3196   997.3771  0.000e+00
      1.153    23.8579    23.8636     96.402  94.211243      1.640     8.3651     99.137    8.43800    8.41909 2.9443e+01     3.1896     1.5561    67.7712   997.3760  0.000e+00
      1.213    23.8473    23.8530     95.923  93.722790      1.726     8.2688     97.975    8.43968    8.42078 2.9147e+01     3.0518     1.5707    67.5254   997.3787  0.000e+00
      1.289    23.7994    23.8051     95.580  93.295415      1.834     8.1803     96.840    8.44728    8.42840 2.7211e+01     2.9861     1.5510    67.8585   997.3906  0.000e+00
      1.354    23.6935    23.6992     95.129  92.654379      1.926     8.1133     95.856    8.46408    8.44526 2.7199e+01     3.0921     1.5442    67.9740   997.4166  0.000e+00
      1.396    23.5083    23.5140     95.209  92.379697      1.985     8.0627     94.927    8.49359    8.47489 2.6741e+01     3.0561     1.5670    67.5876   997.4618  0.000e+00
      1.400    23.3243    23.3299     95.951  92.746070      1.992     8.0035     93.904    8.52309    8.50450 2.6662e+01     3.0455     1.5543    67.8023   997.5064  0.000e+00
      1.399    23.2511    23.2567     96.160  92.807146      1.990     7.9419     93.053    8.53488    8.51633 2.6656e+01     3.0497     1.5533    67.8200   997.5240  0.000e+00
      1.401    23.2660    23.2716     96.130  92.807142      1.993     7.9125     92.733    8.53248    8.51393 2.6790e+01     3.0963     1.5477    67.9148   997.5205  0.000e+00
      1.408    23.3225    23.3281     96.271  93.051341      2.002     7.8987     92.671    8.52338    8.50480 2.5992e+01     3.0879     1.5397    68.0510   997.5070  0.000e+00
      1.431    23.4001    23.4058     96.211  93.142899      2.035     7.9057     92.889    8.51090    8.49227 2.5514e+01     3.2405     1.5340    68.1472   997.4884  0.000e+00
      1.477    23.4482    23.4538     95.359  92.410242      2.101     7.9330     93.294    8.50322    8.48455 2.5276e+01     3.1917     1.5580    67.7401   997.4767  0.000e+00
      1.546    23.3686    23.3742     95.074  91.982904      2.199     7.9933     93.862    8.51599    8.49737 2.3825e+01     3.1599     1.5524    67.8348   997.4961  0.000e+00
      1.617    23.2218    23.2273     95.111  91.738745      2.299     8.0137     93.842    8.53964    8.52111 2.3258e+01     3.2214     1.5140    68.4893   997.5317  0.000e+00
      1.677    23.0623    23.0679     95.268  91.586167      2.385     8.0516     94.001    8.56544    8.54702 2.3205e+01     3.2999     1.4889    68.9201   997.5700  0.000e+00
      1.721    22.9132    22.9187     95.214  91.250439      2.448     8.0519     93.739    8.58971    8.57138 2.2171e+01     3.1981     1.4961    68.7958   997.6055  0.000e+00
      1.773    22.8018    22.8073     95.340  91.158899      2.521     8.0359     93.355    8.60791    8.58966 2.2222e+01     3.2553     1.4755    69.1511   997.6320  0.000e+00
      1.813    22.7227    22.7282     95.338  91.006301      2.579     8.0157     92.979    8.62089    8.60269 2.1903e+01     3.1833     1.4756    69.1496   997.6507  0.000e+00
      1.848    22.6427    22.6481     95.242  90.762133      2.629     7.9904     92.546    8.63405    8.61590 2.1378e+01     3.1896     1.5197    68.3915   997.6695  0.000e+00
      1.893    22.5724    22.5778     95.479  90.853726      2.693     7.9703     92.189    8.64563    8.62753 2.1246e+01     3.1769     1.4920    68.8668   997.6862  0.000e+00
      1.948    22.5178    22.5232     95.492  90.762171      2.771     7.9686     92.073    8.65464    8.63658 2.0741e+01     3.2002     1.4842    69.0016   997.6991  0.000e+00
      1.995    22.4525    22.4579     95.367  90.518001      2.837     7.9789     92.077    8.66547    8.64745 2.0294e+01     3.0963     1.4687    69.2696   997.7144  0.000e+00
      2.055    22.3830    22.3883     95.410  90.426452      2.923     7.9845     92.019    8.67700    8.65902 1.9839e+01     3.0285     1.4647    69.3377   997.7308  0.000e+00
      2.123    22.3246    22.3299     95.270  90.182284      3.020     7.9923     92.006    8.68672    8.66878 1.9367e+01     2.8992     1.4768    69.1289   997.7445  0.000e+00
      2.186    22.2728    22.2782     95.374  90.182300      3.109     7.9918     91.909    8.69533    8.67744 1.9341e+01     2.6702     1.4903    68.8964   997.7567  0.000e+00
      2.224    22.2130    22.2183     95.398  90.090749      3.164     7.9894     91.776    8.70532    8.68746 1.8916e+01     2.4583     1.4867    68.9586   997.7706  0.000e+00
      2.266    22.1548    22.1601     95.354  89.938153      3.223     7.9809     91.576    8.71505    8.69724 1.8602e+01     2.3395     1.4740    69.1778   997.7841  0.000e+00
      2.319    22.1066    22.1119     95.355  89.846599      3.298     7.9586     91.235    8.72314    8.70535 1.8348e+01     2.3607     1.4778    69.1111   997.7953  0.000e+00
      2.410    22.0630    22.0683     95.443  89.846613      3.428     7.9351     90.890    8.73044    8.71268 1.7502e+01     2.4159     1.4713    69.2237   997.8057  0.000e+00
      2.496    22.0176    22.0229     95.275  89.602448      3.550     7.9218     90.658    8.73807    8.72035 1.7586e+01     2.3247     1.4700    69.2459   997.8163  0.000e+00
      2.551    21.9656    21.9708     95.283  89.510898      3.628     7.9089     90.420    8.74684    8.72916 1.7418e+01     2.2971     1.4780    69.1082   997.8284  0.000e+00
      2.574    21.9213    21.9266     95.568  89.694044      3.660     7.8869     90.091    8.75430    8.73664 1.7736e+01     2.3459     1.5334    68.1576   997.8386  0.000e+00
      2.580    21.8949    21.9001     95.525  89.602485      3.670     7.8645     89.790    8.75876    8.74113 1.7514e+01     2.3438     1.4976    68.7706   997.8446  0.000e+00
      2.585    21.8958    21.9011     95.620  89.694051      3.676     7.8498     89.624    8.75860    8.74097 1.7200e+01     2.1805     1.4599    69.4206   997.8444  0.000e+00
      2.583    21.9073    21.9126     95.695  89.785615      3.675     7.8349     89.474    8.75666    8.73901 1.7390e+01     2.1297     1.4616    69.3925   997.8418  0.000e+00
      2.583    21.9253    21.9305     95.560  89.694043      3.675     7.8195     89.328    8.75363    8.73597 1.7326e+01     2.1021     1.4553    69.5020   997.8377  0.000e+00
      2.581    21.9589    21.9642     95.849  90.029781      3.671     7.8133     89.316    8.74795    8.73027 1.7109e+01     2.1424     1.4588    69.4398   997.8302  0.000e+00
      2.589    22.0160    22.0212     95.733  90.029764      3.682     7.8149     89.432    8.73835    8.72063 1.7590e+01     2.1848     1.4633    69.3628   997.8173  0.000e+00
      2.596    22.0663    22.0716     95.793  90.182364      3.692     7.8228     89.610    8.72988    8.71212 1.7271e+01     2.3099     1.4564    69.4828   997.8059  0.000e+00
      2.600    22.0932    22.0985     95.576  90.029742      3.698     7.8421     89.877    8.72538    8.70760 1.7145e+01     2.2335     1.4510    69.5761   997.7997  0.000e+00
      2.593    22.1001    22.1054     95.562  90.029739      3.689     7.8619     90.116    8.72421    8.70643 1.7438e+01     2.2844     1.4547    69.5109   997.7981  0.000e+00
      2.590    22.1022    22.1075     95.979  90.426539      3.684     7.8840     90.373    8.72386    8.70608 1.7518e+01     2.3141     1.4476    69.6353   997.7978  0.000e+00
      2.583    22.1564    22.1617     95.610  90.182337      3.675     7.8942     90.584    8.71478    8.69696 1.7526e+01     2.3183     1.4508    69.5790   997.7852  0.000e+00
      2.586    22.1887    22.1940     95.771  90.395990      3.678     7.9186     90.920    8.70938    8.69153 1.7231e+01     2.1911     1.4649    69.3347   997.7779  0.000e+00
      2.585    22.1986    22.2039     95.686  90.334941      3.676     7.9328     91.101    8.70772    8.68987 1.7442e+01     2.2335     1.4623    69.3806   997.7756  0.000e+00
      2.589    22.2127    22.2181     95.754  90.426506      3.682     7.9425     91.237    8.70536    8.68750 1.7450e+01     2.3014     1.4679    69.2829   997.7724  0.000e+00
      2.588    22.2319    22.2372     95.618  90.334931      3.681     7.9550     91.414    8.70216    8.68429 1.7606e+01     2.1911     1.4696    69.2533   997.7680  0.000e+00
      2.594    22.2412    22.2466     95.535  90.273882      3.690     7.9625     91.517    8.70060    8.68272 1.7291e+01     2.0406     1.4734    69.1866   997.7658  0.000e+00
      2.596    22.2477    22.2530     95.780  90.518066      3.692     7.9656     91.564    8.69952    8.68163 1.7558e+01     2.1042     1.4788    69.0934   997.7644  0.000e+00
      2.591    22.2592    22.2645     95.757  90.518063      3.686     7.9582     91.499    8.69760    8.67971 1.7773e+01     2.2229     1.4918    68.8698   997.7618  0.000e+00
      2.589    22.2963    22.3017     96.037  90.853813      3.682     7.9416     91.373    8.69140    8.67348 1.7570e+01     2.2611     1.4936    68.8387   997.7533  0.000e+00
      2.592    22.3664    22.3718     95.959  90.914841      3.687     7.9267     91.324    8.67974    8.66178 1.7490e+01     2.2081     1.4914    68.8772   997.7372  0.000e+00
      2.614    22.4273    22.4327     95.675  90.762203      3.718     7.9144     91.289    8.66964    8.65163 1.7310e+01     2.2102     1.4868    68.9557   997.7231  0.000e+00
      2.636    22.4360    22.4414     95.754  90.853772      3.750     7.9242     91.417    8.66819    8.65017 1.7164e+01     2.2017     1.4696    69.2533   997.7212  0.000e+00
      2.656    22.4304    22.4358     95.765  90.853774      3.778     7.9395     91.584    8.66912    8.65112 1.7117e+01     2.2526     1.4994    68.7395   997.7226  0.000e+00
      2.658    22.4382    22.4436     95.556  90.670629      3.781     7.9530     91.753    8.66783    8.64982 1.6942e+01     2.1636     1.4827    69.0267   997.7208  0.000e+00
      2.664    22.4332    22.4386     95.566  90.670630      3.789     7.9708     91.949    8.66866    8.65065 1.7008e+01     2.2145     1.4789    69.0919   997.7219  0.000e+00
      2.667    22.4038    22.4092     95.626  90.670639      3.793     7.9927     92.151    8.67353    8.65554 1.7188e+01     2.1975     1.4767    69.1304   997.7288  0.000e+00
      2.676    22.3819    22.3872     95.573  90.579075      3.806     7.9967     92.157    8.67718    8.65921 1.7168e+01     2.1954     1.4656    69.3229   997.7339  0.000e+00
      2.686    22.3686    22.3740     95.600  90.579079      3.820     7.9948     92.113    8.67938    8.66141 1.7227e+01     2.4010     1.4742    69.1733   997.7370  0.000e+00
      2.694    22.3645    22.3699     95.705  90.670651      3.832     7.9772     91.902    8.68006    8.66210 1.7035e+01     2.3862     1.4792    69.0874   997.7380  0.000e+00
      2.697    22.3614    22.3668     95.615  90.579081      3.836     7.9540     91.630    8.68057    8.66261 1.7113e+01     2.3162     1.4885    68.9275   997.7387  0.000e+00
      2.696    22.3586    22.3640     95.588  90.548558      3.834     7.9362     91.419    8.68104    8.66308 1.7184e+01     2.3438     1.5046    68.6492   997.7393  0.000e+00
      2.696    22.3561    22.3614     95.722  90.670653      3.834     7.9182     91.208    8.68146    8.66351 1.6818e+01     2.3629     1.5061    68.6240   997.7399  0.000e+00
      2.716    22.3557    22.3611     95.723  90.670654      3.864     7.9141     91.161    8.68152    8.66357 1.7145e+01     2.4095     1.5138    68.4922   997.7401  0.000e+00
      2.760    22.3620    22.3673     95.549  90.518034      3.926     7.9237     91.281    8.68049    8.66253 1.6657e+01     2.6512     1.5133    68.5011   997.7388  0.000e+00
      2.803    22.3692    22.3746     95.534  90.518032      3.987     7.9391     91.472    8.67928    8.66132 1.6508e+01     2.5918     1.4900    68.9009   997.7373  0.000e+00
      2.844    22.3497    22.3550     95.638  90.579086      4.045     7.9578     91.654    8.68253    8.66458 1.6101e+01     2.5155     1.4857    68.9749   997.7421  0.000e+00
      2.901    22.3364    22.3418     95.504  90.426473      4.126     7.9665     91.730    8.68474    8.66679 1.5834e+01     2.4689     1.4810    69.0564   997.7453  0.000e+00
      2.956    22.3161    22.3215     95.287  90.182294      4.204     7.9770     91.815    8.68812    8.67019 1.5701e+01     2.3904     1.4634    69.3614   997.7502  0.000e+00
      3.000    22.2593    22.2646     94.885  89.693949      4.267     7.9823     91.775    8.69760    8.67971 1.5856e+01     2.3332     1.4600    69.4191   997.7633  0.000e+00
      3.037    22.1154    22.1207     94.819  89.358249      4.320     8.0000     91.725    8.72167    8.70388 1.5310e+01     2.3183     1.4646    69.3392   997.7963  0.000e+00
      3.075    21.9447    21.9499     95.163  89.358299      4.373     7.9988     91.411    8.75037    8.73270 1.5111e+01     2.2441     1.4652    69.3288   997.8354  0.000e+00
      3.133    21.8341    21.8394     95.225  89.205723      4.456     7.9714     90.904    8.76905    8.75145 1.4695e+01     2.1551     1.4820    69.0386   997.8607  0.000e+00
      3.195    21.7634    21.7686     95.173  89.022616      4.545     7.9344     90.359    8.78103    8.76349 1.4782e+01     2.1339     1.4806    69.0638   997.8768  0.000e+00
      3.254    21.7078    21.7130     95.221  88.961590      4.628     7.8855     89.706    8.79048    8.77297 1.4371e+01     2.1509     1.4607    69.4073   997.8896  0.000e+00
      3.300    21.6667    21.6719     95.371  89.022644      4.693     7.8366     89.078    8.79747    8.77999 1.4434e+01     2.1212     1.4767    69.1304   997.8990  0.000e+00
      3.353    21.6408    21.6459     95.358  88.961610      4.768     7.7841     88.437    8.80189    8.78443 1.3931e+01     2.0300     1.4806    69.0623   997.9051  0.000e+00
      3.408    21.6215    21.6267     95.398  88.961616      4.847     7.7292     87.780    8.80518    8.78773 1.3857e+01     2.0004     1.4686    69.2710   997.9096  0.000e+00
      3.458    21.5998    21.6050     95.344  88.870059      4.918     7.6881     87.277    8.80888    8.79145 1.3822e+01     2.0576     1.4776    69.1141   997.9147  0.000e+00
      3.501    21.5805    21.5857     95.384  88.870065      4.979     7.6511     86.824    8.81218    8.79476 1.3596e+01     2.1063     1.4756    69.1496   997.9192  0.000e+00
      3.544    21.5645    21.5697     95.318  88.778507      5.040     7.6266     86.520    8.81491    8.79750 1.3328e+01     2.0364     1.4836    69.0119   997.9229  0.000e+00
      3.588    21.5500    21.5552     95.446  88.870075      5.103     7.6077     86.281    8.81738    8.79999 1.3083e+01     2.0936     1.4815    69.0475   997.9264  0.000e+00
      3.646    21.5382    21.5434     95.273  88.686953      5.186     7.5813     85.961    8.81940    8.80202 1.2789e+01     2.0618     1.4794    69.0830   997.9292  0.000e+00
      3.705    21.5208    21.5260     95.407  88.778521      5.270     7.5822     85.943    8.82237    8.80500 1.2740e+01     1.9516     1.4794    69.0845   997.9333  0.000e+00
      3.761    21.4990    21.5041     95.354  88.686965      5.350     7.5726     85.798    8.82612    8.80876 1.2397e+01     1.9240     1.4857    68.9749   997.9384  0.000e+00
      3.792    21.4779    21.4830     95.331  88.625930      5.394     7.5683     85.713    8.82973    8.81239 1.2388e+01     1.7990     1.5074    68.6018   997.9432  0.000e+00
      3.827    21.4589    21.4640     95.370  88.625936      5.444     7.5691     85.692    8.83299    8.81566 1.2335e+01     1.8223     1.4800    69.0726   997.9476  0.000e+00
      3.870    21.4455    21.4507     95.299  88.534378      5.505     7.5650     85.622    8.83528    8.81796 1.2191e+01     1.9770     1.4988    68.7499   997.9507  0.000e+00
      3.921    21.4330    21.4381     95.226  88.442821      5.576     7.5604     85.550    8.83743    8.82012 1.1921e+01     2.0576     1.4959    68.8002   997.9537  0.000e+00
      3.972    21.4190    21.4241     95.189  88.381784      5.650     7.5566     85.484    8.83984    8.82254 1.1785e+01     2.2335     1.4788    69.0934   997.9570  0.000e+00
      4.024    21.4043    21.4094     95.220  88.381789      5.723     7.5654     85.558    8.84237    8.82508 1.1489e+01     2.2675     1.4959    68.7987   997.9605  0.000e+00
      4.067    21.3894    21.3945     95.250  88.381794      5.784     7.5683     85.567    8.84493    8.82765 1.1547e+01     2.3904     1.5027    68.6832   997.9640  0.000e+00
      4.111    21.3758    21.3809     95.344  88.442839      5.847     7.5700     85.564    8.84726    8.82999 1.1260e+01     2.3692     1.5131    68.5041   997.9672  0.000e+00
      4.150    21.3635    21.3686     95.304  88.381802      5.903     7.5730     85.577    8.84938    8.83212 1.1078e+01     2.6278     1.5101    68.5559   997.9701  0.000e+00
      4.194    21.3518    21.3569     95.328  88.381805      5.966     7.5743     85.572    8.85139    8.83414 1.0882e+01     2.7232     1.5119    68.5248   997.9729  0.000e+00
      4.246    21.3401    21.3453     95.351  88.381809      6.039     7.5770     85.583    8.85340    8.83615 1.0775e+01     2.6660     1.5162    68.4508   997.9757  0.000e+00
      4.300    21.3276    21.3327     95.377  88.381813      6.116     7.5767     85.558    8.85556    8.83833 1.0276e+01     2.6766     1.5477    67.9148   997.9787  0.000e+00
      4.350    21.3129    21.3180     95.309  88.290257      6.187     7.5764     85.530    8.85809    8.84087 1.0399e+01     2.8462     1.5611    67.6868   997.9822  0.000e+00
      4.399    21.2967    21.3018     95.342  88.290262      6.256     7.5760     85.500    8.86088    8.84367 1.0226e+01     3.1154     1.5689    67.5550   997.9859  0.000e+00
      4.437    21.2800    21.2852     95.376  88.290267      6.311     7.5835     85.556    8.86376    8.84656 1.0166e+01     3.2045     1.5496    67.8822   997.9898  0.000e+00
      4.490    21.2637    21.2688     95.410  88.290272      6.386     7.5851     85.547    8.86658    8.84939 9.7774e+00     3.3359     1.5510    67.8585   997.9936  0.000e+00
      4.571    21.2465    21.2516     95.347  88.198717      6.502     7.5919     85.595    8.86955    8.85238 9.5296e+00     3.4567     1.5827    67.3225   997.9977  0.000e+00
      4.636    21.2218    21.2269     95.332  88.137685      6.594     7.5905     85.538    8.87382    8.85667 9.4926e+00     3.5691     1.5976    67.0723   998.0034  0.000e+00
      4.682    21.1890    21.1940     95.201  87.954575      6.659     7.5874     85.449    8.87951    8.86238 9.2924e+00     3.6072     1.5962    67.0960   998.0108  0.000e+00
      4.718    21.1580    21.1631     95.265  87.954585      6.711     7.5688     85.187    8.88488    8.86777 9.1007e+00     3.8192     1.6176    66.7377   998.0177  0.000e+00
      4.779    21.1303    21.1354     95.256  87.893554      6.797     7.5486     84.914    8.88967    8.87258 8.9702e+00     3.8383     1.6276    66.5719   998.0240  0.000e+00
      4.846    21.0967    21.1017     95.326  87.893564      6.892     7.5156     84.488    8.89551    8.87845 8.6553e+00     3.8595     1.6217    66.6696   998.0317  0.000e+00
      4.905    21.0552    21.0603     95.312  87.802017      6.977     7.4847     84.072    8.90272    8.88568 8.5684e+00     4.2284     1.6416    66.3379   998.0410  0.000e+00
      4.939    21.0034    21.0085     95.220  87.618916      7.025     7.4456     83.548    8.91174    8.89474 8.4186e+00     4.3492     1.6179    66.7332   998.0523  0.000e+00
      4.973    20.9485    20.9536     95.168  87.466337      7.074     7.4119     83.081    8.92131    8.90436 8.3094e+00     4.4192     1.6407    66.3542   998.0644  0.000e+00
      5.014    20.8986    20.9036     95.172  87.374794      7.131     7.3801     82.644    8.93005    8.91313 8.2241e+00     4.6523     1.6370    66.4149   998.0753  0.000e+00
      5.059    20.8465    20.8515     95.214  87.313772      7.195     7.3519     82.244    8.93917    8.92229 8.0636e+00     5.0678     1.6178    66.7347   998.0868  0.000e+00
      5.102    20.7830    20.7880     95.079  87.069641      7.256     7.3185     81.768    8.95030    8.93347 8.0636e+00     5.1039     1.6482    66.2298   998.1005  0.000e+00
      5.156    20.6985    20.7035     94.888  86.733966      7.333     7.2821     81.227    8.96518    8.94841 7.7716e+00     4.9322     1.6466    66.2550   998.1188  0.000e+00
      5.223    20.5970    20.6019     94.731  86.398300      7.428     7.2270     80.451    8.98310    8.96640 7.5004e+00     4.8410     1.6437    66.3039   998.1407  0.000e+00
      5.283    20.4705    20.4754     94.357  85.818513      7.514     7.1729     79.650    9.00552    8.98891 7.3339e+00     4.8241     1.6788    65.7249   998.1676  0.000e+00
      5.330    20.3135    20.3184     94.314  85.482878      7.581     7.0929     78.518    9.03348    9.01699 7.1710e+00     4.7414     1.6781    65.7353   998.2009  0.000e+00
      5.380    20.1458    20.1506     94.225  85.086220      7.652     6.9788     76.999    9.06353    9.04717 7.0424e+00     4.7986     1.6461    66.2639   998.2361  0.000e+00
      5.430    19.9831    19.9879     93.820  84.414935      7.724     6.8294     75.107    9.09285    9.07661 7.0763e+00     4.7668     1.6482    66.2298   998.2699  0.000e+00
      5.483    19.7912    19.7960     93.404  83.682654      7.799     6.6698     73.072    9.12765    9.11155 6.7563e+00     4.6969     1.6417    66.3364   998.3093  0.000e+00
      5.536    19.5575    19.5622     93.415  83.255535      7.874     6.5249     71.152    9.17036    9.15443 6.7780e+00     4.6481     1.6772    65.7501   998.3570  0.000e+00
      5.586    19.3303    19.3350     93.446  82.858934      7.946     6.3917     69.383    9.21222    9.19646 6.4833e+00     4.5082     1.6770    65.7545   998.4028  0.000e+00
      5.635    19.1209    19.1255     92.957  82.035178      8.014     6.3056     68.161    9.25112    9.23552 6.5056e+00     4.5548     1.6769    65.7560   998.4443  0.000e+00
      5.690    18.9010    18.9055     92.971  81.638599      8.092     6.3147     67.957    9.29228    9.27685 6.2800e+00     4.6481     1.6704    65.8626   998.4876  0.000e+00
      5.741    18.6658    18.6703     92.913  81.150501      8.166     6.4455     69.035    9.33667    9.32141 6.1420e+00     4.8219     1.6796    65.7116   998.5333  0.000e+00
      5.797    18.4291    18.4335     92.752  80.570888      8.246     6.6681     71.075    9.38173    9.36665 6.0443e+00     4.7880     1.7064    65.2719   998.5787  0.000e+00
      5.854    18.1801    18.1844     92.616  79.991294      8.327     6.9490     73.694    9.42957    9.41467 5.8696e+00     4.7414     1.6997    65.3814   998.6258  0.000e+00
      5.917    17.9098    17.9141     92.809  79.655780      8.416     7.2350     76.303    9.48199    9.46728 5.8014e+00     4.7838     1.7063    65.2748   998.6763  0.000e+00
      5.962    17.6548    17.6590     92.899  79.259253      8.480     7.4647     78.313    9.53191    9.51739 5.5390e+00     5.1484     1.7338    64.8277   998.7230  0.000e+00
      6.009    17.4134    17.4176     93.140  79.015262      8.547     7.5530     78.844    9.57962    9.56527 5.5301e+00     5.3540     1.7209    65.0364   998.7667  0.000e+00
      6.058    17.2142    17.2184     93.471  78.923794      8.616     7.4542     77.493    9.61929    9.60508 5.5149e+00     5.6296     1.7471    64.6115   998.8024  0.000e+00
      6.108    17.0312    17.0353     93.406  78.527261      8.688     7.1474     74.020    9.65603    9.64195 5.3054e+00     6.0748     1.7784    64.1081   998.8346  0.000e+00
      6.151    16.8348    16.8388     93.335  78.100234      8.749     6.6616     68.707    9.69574    9.68180 5.2150e+00     6.3101     1.8633    62.7622   998.8688  0.000e+00
      6.189    16.6231    16.6271     93.699  78.008772      8.803     6.0433     62.053    9.73884    9.72504 5.2150e+00     6.7786     1.9217    61.8516   998.9052  0.000e+00
      6.233    16.4318    16.4357     93.838  77.764782      8.866     5.3328     54.538    9.77811    9.76444 5.0170e+00     7.4888     2.0142    60.4376   998.9377  0.000e+00
      6.288    16.2495    16.2534     94.068  77.612305      8.944     4.5830     46.691    9.81578    9.80223 4.8364e+00     7.2853     2.1090    59.0221   998.9684  0.000e+00
      6.336    16.0384    16.0422     93.957  77.124292      9.011     3.8012     38.553    9.85975    9.84634 4.7485e+00     7.0648     2.1724    58.0938   999.0032  0.000e+00
      6.376    15.7775    15.7813     94.035  76.697308      9.069     3.0306     30.567    9.91458    9.90133 4.6144e+00     8.0654     2.2183    57.4319   999.0455  0.000e+00
      6.426    15.5152    15.5189     94.343  76.453350      9.139     2.3037     23.106    9.97026    9.95717 4.4790e+00     9.7359     2.2612    56.8190   999.0874  0.000e+00
      6.481    15.2566    15.2603     94.040  75.721359      9.218     1.6290     16.249   10.02570   10.01277 4.3436e+00    12.2819     2.3675    55.3294   999.1277  0.000e+00
      6.511    14.9814    14.9850     94.496  75.568918      9.261     1.0160     10.074   10.08529   10.07252 4.3188e+00    15.6334     2.3405    55.7040   999.1699  0.000e+00
      6.534    14.7581    14.7617     94.797  75.385965      9.294     0.4742      4.679   10.13412   10.12148 4.2481e+00    17.6431     2.4767    53.8384   999.2034  0.000e+00
      6.578    14.6145    14.6180     94.641  74.989487      9.357     0.0314      0.309   10.16578   10.15322 3.9650e+00    19.5255     2.5323    53.0952   999.2247  0.000e+00
      6.640    14.4545    14.4580     93.981  74.166023      9.444    -0.3035     -2.975   10.20124   10.18877 3.7228e+00    21.8850     2.4628    54.0265   999.2480  0.000e+00
      6.707    14.2455    14.2490     93.976  73.769584      9.540    -0.5262     -5.134   10.24788   10.23552 3.5277e+00    24.9546     2.4827    53.7585   999.2782  0.000e+00
      6.766    14.0241    14.0275     94.080  73.434153      9.624    -0.6699     -6.506   10.29773   10.28548 3.3596e+00    27.6193     2.5737    52.5488   999.3096  0.000e+00
      6.822    13.8379    13.8412     94.099  73.098717      9.704    -0.7182     -6.946   10.33998   10.32782 3.3085e+00    28.6326     2.4859    53.7156   999.3356  0.000e+00
      6.871    13.6755    13.6787     94.179  72.854774      9.772    -0.7048     -6.792   10.37708   10.36500 3.1530e+00    28.9273     2.4169    54.6498   999.3579  0.000e+00
      6.919    13.5339    13.5371     94.090  72.519337      9.841    -0.6358     -6.108   10.40962   10.39760 2.9816e+00    29.2898     2.3923    54.9874   999.3771  0.000e+00
      6.965    13.4192    13.4224     94.054  72.275390      9.907    -0.5338     -5.115   10.43612   10.42415 2.9389e+00    30.0678     2.4446    54.2723   999.3925  0.000e+00
      6.989    13.3138    13.3170     94.113  72.122931      9.941    -0.4162     -3.979   10.46056   10.44864 2.9382e+00    30.2543     2.3818    55.1310   999.4065  0.000e+00
      7.023    13.2393    13.2424     94.297  72.122949      9.990    -0.3032     -2.893   10.47792   10.46604 2.7733e+00    29.7329     2.3329    55.8092   999.4164  0.000e+00
      7.079    13.1837    13.1868     93.875  71.696016     10.069    -0.1887     -1.799   10.49091   10.47905 2.6334e+00    29.1626     2.1606    58.2655   999.4237  0.000e+00
      7.151    13.1103    13.1134     93.656  71.391077     10.171    -0.0908     -0.864   10.50810   10.49627 2.4873e+00    26.5233     2.0797    59.4560   999.4334  0.000e+00
      7.207    13.0117    13.0148     93.458  71.055654     10.251    -0.0026     -0.025   10.53125   10.51945 2.4444e+00    23.9922     2.0605    59.7432   999.4461  0.000e+00
      7.256    12.9056    12.9087     93.599  70.964194     10.321     0.0832      0.788   10.55627   10.54452 2.4055e+00    21.7260     2.0151    60.4243   999.4598  0.000e+00
      7.308    12.8103    12.8133     93.512  70.720259     10.394     0.1485      1.404   10.57884   10.56713 2.2951e+00    18.9002     2.0289    60.2170   999.4719  0.000e+00
      7.345    12.7061    12.7092     93.245  70.323860     10.448     0.2168      2.044   10.60360   10.59193 2.2700e+00    17.1067     1.9743    61.0447   999.4849  0.000e+00
      7.379    12.5954    12.5984     93.398  70.232404     10.496     0.2725      2.563   10.63003   10.61840 2.2029e+00    15.3112     1.9266    61.7761   999.4986  0.000e+00
      7.419    12.5051    12.5081     93.501  70.140944     10.552     0.3201      3.005   10.65168   10.64008 2.1387e+00    13.6704     1.9635    61.2090   999.5098  0.000e+00
      7.471    12.4280    12.4310     93.368  69.897015     10.626     0.3672      3.441   10.67022   10.65864 2.0874e+00    12.3603     1.9329    61.6799   999.5192  0.000e+00
      7.543    12.3542    12.3571     93.430  69.805553     10.729     0.4195      3.925   10.68804   10.67649 1.9771e+00    10.9675     1.8954    62.2603   999.5284  0.000e+00
      7.633    12.2688    12.2718     93.317  69.561629     10.857     0.4631      4.324   10.70869   10.69717 1.9037e+00     9.8694     1.8377    63.1649   999.5389  0.000e+00
      7.708    12.1564    12.1593     93.394  69.409192     10.963     0.5100      4.751   10.73601   10.72453 1.8289e+00     8.9176     1.8322    63.2523   999.5524  0.000e+00
      7.756    12.0065    12.0094     93.649  69.317749     11.032     0.5550      5.152   10.77261   10.76118 1.8184e+00     7.9933     1.8336    63.2301   999.5700  0.000e+00
      7.794    11.8487    11.8515     93.967  69.256800     11.085     0.5979      5.530   10.81139   10.80000 1.7744e+00     7.2895     1.8278    63.3219   999.5881  0.000e+00
      7.829    11.7191    11.7220     94.299  69.256829     11.135     0.6321      5.829   10.84341   10.83205 1.7720e+00     6.8316     1.8192    63.4581   999.6028  0.000e+00
      7.863    11.6174    11.6201     94.436  69.165376     11.184     0.6647      6.116   10.86869   10.85736 1.7235e+00     6.5115     1.8040    63.6994   999.6142  0.000e+00
      7.906    11.5363    11.5390     94.521  69.073918     11.245     0.6778      6.224   10.88890   10.87759 1.6577e+00     6.3059     1.8066    63.6580   999.6233  0.000e+00
      7.955    11.4754    11.4782     94.804  69.165408     11.315     0.6795      6.231   10.90410   10.89280 1.6168e+00     6.0366     1.8116    63.5780   999.6302  0.000e+00
      8.007    11.4170    11.4198     94.830  69.073945     11.388     0.6695      6.132   10.91874   10.90745 1.5958e+00     5.6508     1.8069    63.6535   999.6367  0.000e+00
      8.058    11.3567    11.3594     94.778  68.921500     11.462     0.6333      5.792   10.93391   10.92264 1.5554e+00     5.4452     1.8118    63.5751   999.6433  0.000e+00
      8.114    11.2945    11.2972     95.150  69.073974     11.541     0.5870      5.361   10.94955   10.93830 1.5146e+00     5.2586     1.8132    63.5529   999.6503  0.000e+00
      8.170    11.2320    11.2347     95.231  69.013004     11.621     0.5170      4.715   10.96534   10.95410 1.4517e+00     5.0890     1.8387    63.1486   999.6571  0.000e+00
      8.220    11.1670    11.1697     95.275  68.921543     11.691     0.4416      4.021   10.98178   10.97055 1.4266e+00     5.1760     1.8705    62.6482   999.6641  0.000e+00
      8.272    11.1027    11.1054     95.318  68.830082     11.765     0.3658      3.326   10.99811   10.98690 1.3581e+00     4.9873     1.9578    61.2964   999.6710  0.000e+00
      8.336    11.0438    11.0465     95.474  68.830096     11.857     0.2906      2.639   11.01309   11.00189 1.3331e+00     4.9216     2.0277    60.2348   999.6774  0.000e+00
      8.397    10.9850    10.9877     95.884  69.013061     11.943     0.2227      2.019   11.02807   11.01688 1.2836e+00     4.9004     2.0897    59.3079   999.6838  0.000e+00
      8.454    10.9236    10.9262     95.921  68.921599     12.024     0.1737      1.573   11.04378   11.03260 1.2571e+00     4.9703     2.1807    57.9738   999.6902  0.000e+00
      8.505    10.8651    10.8677     95.822  68.738662     12.096     0.1515      1.370   11.05878   11.04761 1.2058e+00     5.1548     2.2440    57.0633   999.6963  0.000e+00
      8.568    10.8117    10.8143     95.965  68.738674     12.187     0.1316      1.188   11.07250   11.06133 1.1434e+00     5.2692     2.2859    56.4695   999.7019  0.000e+00
      8.641    10.7628    10.7654     96.097  68.738686     12.290     0.1268      1.144   11.08508   11.07392 1.0618e+00     5.6021     2.3397    55.7144   999.7071  0.000e+00
      8.704    10.7134    10.7159     95.888  68.494766     12.381     0.1302      1.173   11.09785   11.08670 1.0497e+00     5.9603     2.3801    55.1547   999.7122  0.000e+00
      8.751    10.6644    10.6670     95.934  68.433794     12.446     0.1330      1.197   11.11050   11.09935 1.0089e+00     6.1045     2.4028    54.8423   999.7172  0.000e+00
      8.799    10.6211    10.6237     96.051  68.433804     12.515     0.1482      1.332   11.12171   11.11058 9.7930e-01     6.3652     2.4422    54.3048   999.7216  0.000e+00
      8.859    10.5858    10.5884     95.889  68.250866     12.601     0.1584      1.423   11.13087   11.11974 9.5274e-01     6.4988     2.5162    53.3099   999.7252  0.000e+00
      8.917    10.5544    10.5570     96.103  68.342347     12.682     0.1615      1.450   11.13902   11.12790 9.2435e-01     6.7998     2.5263    53.1751   999.7286  0.000e+00
      8.963    10.5234    10.5259     96.058  68.250881     12.748     0.1631      1.463   11.14711   11.13598 8.7509e-01     7.2005     2.5587    52.7457   999.7317  0.000e+00
      9.008    10.4952    10.4977     96.134  68.250887     12.812     0.1671      1.498   11.15444   11.14331 8.4456e-01     7.4972     2.6151    52.0084   999.7347  0.000e+00
      9.064    10.4709    10.4734     96.200  68.250893     12.892     0.1781      1.596   11.16079   11.14967 8.1883e-01     7.7410     2.6798    51.1733   999.7372  0.000e+00
      9.123    10.4479    10.4504     96.435  68.372863     12.976     0.1807      1.618   11.16678   11.15567 7.7858e-01     7.9742     2.7264    50.5811   999.7398  0.000e+00
      9.165    10.4216    10.4241     96.678  68.494834     13.035     0.1813      1.622   11.17365   11.16253 7.3810e-01     9.0321     2.8033    49.6172   999.7425  0.000e+00
      9.214    10.3943    10.3968     96.667  68.433858     13.106     0.1827      1.634   11.18079   11.16967 7.1611e-01     9.6468     2.8681    48.8206   999.7453  0.000e+00
      9.264    10.3740    10.3765     96.722  68.433862     13.176     0.1815      1.623   11.18610   11.17499 6.8639e-01    10.4884     2.9441    47.9011   999.7474  0.000e+00
      9.321    10.3606    10.3631     96.845  68.494848     13.257     0.1872      1.673   11.18959   11.17848 6.4847e-01    11.1943     3.0406    46.7596   999.7490  0.000e+00
      9.385    10.3503    10.3528     96.787  68.433868     13.348     0.1878      1.678   11.19229   11.18118 5.9726e-01    12.2649     3.2303    44.5934   999.7502  0.000e+00
      9.445    10.3353    10.3377     97.044  68.586329     13.434     0.1912      1.708   11.19623   11.18513 5.6169e-01    13.3566     3.4113    42.6212   999.7520  0.000e+00
      9.512    10.3110    10.3135     96.981  68.494860     13.529     0.1958      1.748   11.20260   11.19150 5.0631e-01    14.3678     3.5129    41.5522   999.7545  0.000e+00
      9.585    10.2861    10.2886     97.309  68.677815     13.632     0.2047      1.826   11.20914   11.19804 4.7105e-01    15.5486     3.7075    39.5785   999.7573  0.000e+00
      9.656    10.2644    10.2669     97.455  68.738804     13.734     0.2055      1.832   11.21484   11.20374 4.3855e-01    16.7654     3.8997    37.7218   999.7597  0.000e+00
      9.722    10.2356    10.2380     97.795  68.921761     13.828     0.2079      1.852   11.22241   11.21132 4.0886e-01    17.7809     4.0303    36.5107   999.7627  0.000e+00
      9.780    10.2102    10.2127     98.211  69.165705     13.911     0.2091      1.862   11.22909   11.21799 3.7683e-01    18.5568     4.1266    35.6415   999.7655  0.000e+00
      9.838    10.1894    10.1918     98.746  69.501128     13.993     0.2081      1.852   11.23457   11.22347 3.5699e-01    19.4535     4.2433    34.6169   999.7678  0.000e+00
      9.894    10.1724    10.1748     98.664  69.409654     14.073     0.2130      1.895   11.23906   11.22797 3.3213e-01    20.9141     4.3914    33.3584   999.7696  0.000e+00
      9.939    10.1613    10.1637     98.825  69.501135     14.137     0.2049      1.823   11.24199   11.23090 3.1271e-01    22.5379     4.4606    32.7869   999.7709  0.000e+00
      9.990    10.1524    10.1548     99.414  69.897548     14.209     0.1995      1.774   11.24431   11.23322 2.9422e-01    23.7208     4.4671    32.7336   999.7721  0.000e+00
     10.042    10.1410    10.1434     99.793  70.141500     14.283     0.2025      1.800   11.24731   11.23623 2.7886e-01    25.2154     4.4870    32.5707   999.7735  0.000e+00
     10.083    10.1263    10.1287     99.835  70.141504     14.342     0.1988      1.767   11.25120   11.24011 2.6931e-01    26.3241     4.4741    32.6758   999.7750  0.000e+00
     10.127    10.1127    10.1151    100.004  70.232989     14.405     0.1929      1.714   11.25480   11.24371 2.5737e-01    27.0194     4.4868    32.5722   999.7765  0.000e+00
     10.172    10.1007    10.1031    100.168  70.324474     14.469     0.1898      1.686   11.25796   11.24688 2.3830e-01    27.8143     4.4914    32.5352   999.7779  0.000e+00
     10.226    10.0891    10.0915    100.071  70.232995     14.545     0.1862      1.654   11.26104   11.24996 2.2825e-01    28.0518     4.4776    32.6477   999.7791  0.000e+00
     10.282    10.0757    10.0781    100.109  70.232998     14.625     0.1837      1.631   11.26459   11.25350 2.1090e-01    27.5303     4.4436    32.9261   999.7806  0.000e+00
     10.335    10.0615    10.0640    100.367  70.385472     14.700     0.1750      1.553   11.26834   11.25726 2.0182e-01    27.1360     4.4334    33.0104   999.7822  0.000e+00
     10.391    10.0478    10.0502    100.537  70.476959     14.780     0.1745      1.548   11.27198   11.26089 1.8915e-01    26.7756     4.4012    33.2770   999.7837  0.000e+00
     10.457    10.0345    10.0369    100.706  70.568445     14.873     0.1739      1.543   11.27550   11.26442 1.8143e-01    26.1841     4.2596    34.4763   999.7853  0.000e+00
     10.521    10.0208    10.0232    100.615  70.476966     14.964     0.1772      1.571   11.27915   11.26806 1.7598e-01    25.0818     4.1396    35.5260   999.7868  0.000e+00
     10.566    10.0068    10.0092    100.655  70.476969     15.028     0.1737      1.540   11.28287   11.27178 1.7035e-01    24.4713     4.0557    36.2797   999.7882  0.000e+00
     10.619     9.9942     9.9966    100.822  70.568456     15.103     0.1702      1.508   11.28622   11.27514 1.6421e-01    23.8099     3.9327    37.4124   999.7897  0.000e+00
     10.672     9.9833     9.9857    101.071  70.720931     15.180     0.1703      1.508   11.28912   11.27804 1.6156e-01    22.8029     3.8303    38.3822   999.7910  0.000e+00
     10.720     9.9733     9.9757    100.882  70.568461     15.247     0.1676      1.484   11.29179   11.28071 1.5468e-01    20.9628     3.7600    39.0633   999.7920  0.000e+00
     10.768     9.9643     9.9666    100.777  70.476980     15.316     0.1670      1.479   11.29420   11.28312 1.5345e-01    19.2330     3.6691    39.9605   999.7930  0.000e+00
     10.817     9.9562     9.9586    100.801  70.476982     15.386     0.1646      1.457   11.29633   11.28525 1.4959e-01    17.9165     3.6703    39.9487   999.7939  0.000e+00
     10.862     9.9507     9.9531    100.947  70.568467     15.450     0.1604      1.420   11.29780   11.28672 1.4830e-01    16.7612     3.7045    39.6081   999.7947  0.000e+00
     10.913     9.9470     9.9493    100.958  70.568468     15.522     0.1589      1.406   11.29880   11.28772 1.4431e-01    15.9217     3.7135    39.5193   999.7952  0.000e+00
     10.956     9.9412     9.9436    100.975  70.568470     15.583     0.1581      1.399   11.30034   11.28926 1.4052e-01    15.0271     3.7173    39.4823   999.7959  0.000e+00
     11.004     9.9353     9.9377    101.079  70.629461     15.652     0.1524      1.348   11.30191   11.29083 1.3924e-01    13.8845     3.7308    39.3490   999.7967  0.000e+00
     11.058     9.9303     9.9327    101.094  70.629462     15.728     0.1535      1.358   11.30323   11.29216 1.3718e-01    12.9009     3.7180    39.4749   999.7974  0.000e+00
     11.109     9.9255     9.9279    101.020  70.568475     15.800     0.1506      1.332   11.30451   11.29344 1.3624e-01    11.9999     3.6984    39.6688   999.7980  0.000e+00
     11.177     9.9202     9.9226    101.036  70.568476     15.897     0.1593      1.409   11.30593   11.29485 1.3239e-01    11.1838     3.6624    40.0271   999.7988  0.000e+00
     11.243     9.9149     9.9173    101.051  70.568478     15.991     0.1511      1.336   11.30735   11.29627 1.3044e-01    10.6707     3.6641    40.0109   999.7996  0.000e+00
     11.303     9.9088     9.9112    101.156  70.629469     16.077     0.1491      1.318   11.30897   11.29789 1.2910e-01    10.2425     3.6269    40.3840   999.8005  0.000e+00
     11.352     9.9030     9.9054    101.173  70.629470     16.147     0.1462      1.293   11.31053   11.29945 1.2528e-01     9.9606     3.5825    40.8356   999.8012  0.000e+00
     11.392     9.8980     9.9004    101.187  70.629472     16.203     0.1391      1.229   11.31185   11.30077 1.2491e-01     9.6320     3.5252    41.4249   999.8018  0.000e+00
     11.444     9.8942     9.8966    100.980  70.477001     16.277     0.1412      1.249   11.31287   11.30179 1.2408e-01     9.2504     3.5059    41.6247   999.8023  0.000e+00
     11.503     9.8903     9.8926    101.210  70.629474     16.361     0.1351      1.194   11.31392   11.30285 1.2525e-01     9.0257     3.4365    42.3532   999.8030  0.000e+00
     11.569     9.8859     9.8883    101.353  70.720960     16.455     0.1298      1.147   11.31507   11.30399 1.2214e-01     8.5254     3.3768    42.9899   999.8038  0.000e+00
     11.621     9.8814     9.8838    101.235  70.629477     16.528     0.1332      1.177   11.31629   11.30521 1.2166e-01     7.9361     3.3432    43.3526   999.8043  0.000e+00
     11.678     9.8770     9.8793    101.467  70.781952     16.610     0.1409      1.245   11.31747   11.30639 1.1915e-01     7.4125     3.3406    43.3808   999.8051  0.000e+00
     11.735     9.8737     9.8761    101.389  70.720964     16.691     0.1406      1.242   11.31834   11.30727 1.1934e-01     7.2005     3.3077    43.7391   999.8056  0.000e+00
     11.793     9.8714     9.8737    101.527  70.812449     16.774     0.1384      1.223   11.31896   11.30789 1.1855e-01     6.9206     3.2801    44.0426   999.8061  0.000e+00
     11.835     9.8689     9.8713    101.534  70.812450     16.833     0.1465      1.294   11.31962   11.30854 1.2069e-01     6.5921     3.2275    44.6245   999.8065  0.000e+00
     11.870     9.8666     9.8690    101.541  70.812451     16.883     0.1366      1.207   11.32024   11.30917 1.1839e-01     6.3292     3.1582    45.4048   999.8069  0.000e+00
     11.918     9.8653     9.8677    101.545  70.812451     16.952     0.1448      1.279   11.32058   11.30951 1.1814e-01     6.0642     3.1470    45.5321   999.8072  0.000e+00
     11.978     9.8653     9.8677    101.894  71.056412     17.036     0.1472      1.300   11.32057   11.30950 1.1674e-01     5.9031     3.1490    45.5099   999.8077  0.000e+00
     12.056     9.8637     9.8660    101.549  70.812452     17.147     0.1420      1.255   11.32102   11.30994 1.2050e-01     5.5512     3.1403    45.6091   999.8080  0.000e+00
     12.130     9.8611     9.8634    101.644  70.873443     17.253     0.1482      1.309   11.32172   11.31064 1.1793e-01     5.3159     3.1046    46.0178   999.8086  0.000e+00
     12.197     9.8577     9.8600    101.917  71.056415     17.349     0.1581      1.396   11.32261   11.31154 1.1624e-01     5.1590     3.0586    46.5493   999.8093  0.000e+00
     12.248     9.8546     9.8569    101.795  70.964931     17.421     0.1539      1.359   11.32345   11.31237 1.1468e-01     4.9767     3.0391    46.7773   999.8098  0.000e+00
     12.305     9.8518     9.8542    101.453  70.720972     17.502     0.1521      1.343   11.32419   11.31311 1.1842e-01     4.7732     3.0177    47.0276   999.8102  0.000e+00
     12.344     9.8494     9.8518    101.591  70.812458     17.557     0.1469      1.297   11.32484   11.31376 1.1723e-01     4.6714     2.9800    47.4732   999.8106  0.000e+00
     12.371     9.8473     9.8497    101.335  70.629490     17.596     0.1489      1.315   11.32541   11.31433 1.1584e-01     4.5718     2.9622    47.6850   999.8108  0.000e+00
     12.413     9.8463     9.8486    101.469  70.720974     17.655     0.1420      1.254   11.32569   11.31461 1.1677e-01     4.4976     2.9632    47.6731   999.8112  0.000e+00
     12.464     9.8457     9.8480    101.339  70.629491     17.729     0.1449      1.279   11.32585   11.31477 1.1626e-01     4.3450     2.9262    48.1158   999.8114  0.000e+00
     12.527     9.8446     9.8470    101.692  70.873450     17.818     0.1481      1.308   11.32612   11.31504 1.1557e-01     4.2920     2.9144    48.2580   999.8119  0.000e+00
     12.593     9.8430     9.8454    102.178  71.208898     17.911     0.1465      1.294   11.32652   11.31545 1.1610e-01     4.2093     2.9034    48.3912   999.8126  0.000e+00
     12.666     9.8411     9.8434    102.447  71.391873     18.015     0.1503      1.327   11.32704   11.31597 1.1497e-01     4.1902     2.8950    48.4934   999.8132  0.000e+00
     12.730     9.8394     9.8417    102.189  71.208900     18.107     0.1543      1.363   11.32750   11.31643 1.1600e-01     4.0651     2.8816    48.6562   999.8135  0.000e+00
     12.794     9.8374     9.8398    102.326  71.300387     18.197     0.1489      1.314   11.32803   11.31695 1.1345e-01     3.9888     2.8273    49.3211   999.8140  0.000e+00
     12.852     9.8355     9.8379    102.069  71.117415     18.280     0.1500      1.324   11.32854   11.31746 1.1539e-01     3.8998     2.8064    49.5787   999.8144  0.000e+00
     12.903     9.8339     9.8363    101.986  71.056425     18.352     0.1509      1.332   11.32898   11.31790 1.1366e-01     3.8447     2.7683    50.0540   999.8147  0.000e+00
     12.951     9.8323     9.8346    102.079  71.117417     18.421     0.1481      1.307   11.32941   11.31834 1.1680e-01     3.8659     2.7632    50.1176   999.8151  0.000e+00
     13.022     9.8313     9.8336    101.994  71.056427     18.521     0.1472      1.300   11.32968   11.31860 1.1544e-01     3.8256     2.7514    50.2657   999.8155  0.000e+00
     13.086     9.8304     9.8328    102.215  71.208904     18.613     0.1471      1.298   11.32991   11.31883 1.1470e-01     3.7366     2.7104    50.7839   999.8160  0.000e+00
     13.130     9.8292     9.8316    102.087  71.117419     18.676     0.1532      1.352   11.33022   11.31915 1.1345e-01     3.6539     2.7099    50.7898   999.8162  0.000e+00
     13.185     9.8285     9.8309    102.221  71.208905     18.754     0.1534      1.354   11.33040   11.31933 1.1624e-01     3.6051     2.6813    51.1541   999.8166  0.000e+00
     13.234     9.8283     9.8307    102.222  71.208906     18.823     0.1519      1.341   11.33047   11.31939 1.1610e-01     3.6348     2.6865    51.0874   999.8168  0.000e+00
     13.282     9.8281     9.8305    102.003  71.056429     18.891     0.1585      1.399   11.33052   11.31945 1.1526e-01     3.5097     2.6721    51.2725   999.8170  0.000e+00
     13.335     9.8281     9.8305    102.091  71.117420     18.966     0.1510      1.333   11.33052   11.31944 1.1557e-01     3.4313     2.6619    51.4028   999.8173  0.000e+00
     13.395     9.8278     9.8301    102.004  71.056430     19.052     0.1482      1.308   11.33061   11.31954 1.1512e-01     3.3592     2.6427    51.6501   999.8176  0.000e+00
     13.441     9.8264     9.8287    102.490  71.391881     19.118     0.1542      1.361   11.33097   11.31990 1.1613e-01     3.3359     2.6355    51.7434   999.8181  0.000e+00
     13.488     9.8245     9.8269    102.233  71.208908     19.185     0.1517      1.339   11.33148   11.32041 1.1342e-01     3.2681     2.6336    51.7685   999.8184  0.000e+00
     13.547     9.8234     9.8257    102.236  71.208909     19.268     0.1509      1.332   11.33179   11.32072 1.1478e-01     3.1748     2.6252    51.8766   999.8187  0.000e+00
     13.602     9.8225     9.8249    102.107  71.117423     19.346     0.1456      1.285   11.33202   11.32094 1.1502e-01     3.2235     2.6135    52.0291   999.8190  0.000e+00
     13.657     9.8209     9.8232    102.112  71.117424     19.424     0.1460      1.288   11.33247   11.32139 1.1226e-01     3.1599     2.6220    51.9181   999.8194  0.000e+00
     13.699     9.8193     9.8217    102.117  71.117425     19.485     0.1414      1.248   11.33287   11.32180 1.1544e-01     3.0857     2.6154    52.0040   999.8198  0.000e+00
     13.746     9.8188     9.8212    102.381  71.300398     19.551     0.1407      1.242   11.33300   11.32193 1.1486e-01     3.1133     2.6225    51.9122   999.8201  0.000e+00
     13.806     9.8179     9.8202    102.252  71.208912     19.637     0.1372      1.210   11.33326   11.32218 1.1507e-01     3.0370     2.6168    51.9862   999.8204  0.000e+00
     13.865     9.8165     9.8189    102.256  71.208913     19.721     0.1425      1.257   11.33362   11.32254 1.1392e-01     3.1303     2.6316    51.7937   999.8208  0.000e+00
     13.920     9.8153     9.8176    102.260  71.208913     19.799     0.1417      1.250   11.33396   11.32289 1.1507e-01     3.1197     2.6020    52.1787   999.8212  0.000e+00
     13.979     9.8137     9.8161    102.133  71.117428     19.882     0.1461      1.289   11.33439   11.32331 1.1534e-01     3.1324     2.5744    52.5399   999.8216  0.000e+00
     14.037     9.8125     9.8148    102.137  71.117428     19.965     0.1473      1.300   11.33471   11.32364 1.1497e-01     3.0857     2.5833    52.4230   999.8219  0.000e+00
     14.082     9.8108     9.8132    102.141  71.117429     20.029     0.1462      1.290   11.33515   11.32408 1.1144e-01     3.1091     2.5918    52.3119   999.8223  0.000e+00
     14.132     9.8092     9.8116    102.146  71.117430     20.101     0.1497      1.321   11.33559   11.32451 1.1402e-01     3.0497     2.5418    52.9693   999.8227  0.000e+00
     14.183     9.8076     9.8100    102.282  71.208917     20.173     0.1473      1.299   11.33600   11.32493 1.1476e-01     3.0815     2.5135    53.3454   999.8231  0.000e+00
     14.232     9.8067     9.8090    102.285  71.208917     20.243     0.1516      1.337   11.33627   11.32520 1.1418e-01     2.9713     2.5088    53.4091   999.8234  0.000e+00
     14.281     9.8057     9.8081    102.551  71.391892     20.312     0.1459      1.287   11.33651   11.32544 1.1489e-01     2.9098     2.4847    53.7318   999.8238  0.000e+00
     14.328     9.8046     9.8069    102.423  71.300405     20.379     0.1509      1.331   11.33683   11.32575 1.1473e-01     2.9098     2.4879    53.6889   999.8241  0.000e+00
     14.365     9.8034     9.8057    102.295  71.208919     20.432     0.1483      1.308   11.33714   11.32607 1.1389e-01     2.8589     2.4777    53.8251   999.8243  0.000e+00
     14.409     9.8022     9.8045    102.430  71.300406     20.495     0.1437      1.268   11.33747   11.32639 1.1239e-01     2.7911     2.4756    53.8533   999.8247  0.000e+00
     14.462     9.8011     9.8034    102.433  71.300407     20.570     0.1435      1.265   11.33776   11.32669 1.1418e-01     2.8356     2.4652    53.9939   999.8250  0.000e+00
     14.528     9.8000     9.8023    102.568  71.391895     20.664     0.1440      1.270   11.33806   11.32698 1.1431e-01     2.8398     2.4540    54.1449   999.8255  0.000e+00
     14.594     9.7991     9.8015    102.658  71.452887     20.757     0.1372      1.210   11.33827   11.32720 1.1486e-01     2.8377     2.4448    54.2693   999.8259  0.000e+00
     14.658     9.7985     9.8009    102.660  71.452887     20.848     0.1447      1.276   11.33844   11.32737 1.1402e-01     2.8335     2.4203    54.6039   999.8262  0.000e+00
     14.718     9.7981     9.8005    102.924  71.635864     20.934     0.1400      1.234   11.33854   11.32747 1.1557e-01     2.7572     2.4062    54.7964   999.8266  0.000e+00
     14.783     9.7975     9.7998    102.926  71.635864     21.026     0.1455      1.283   11.33871   11.32764 1.1431e-01     2.7720     2.3752    55.2228   999.8270  0.000e+00
     14.854     9.7964     9.7988    103.148  71.788346     21.128     0.1450      1.279   11.33899   11.32791 1.1113e-01     2.8844     2.4010    54.8675   999.8275  0.000e+00
     14.931     9.7953     9.7977    103.370  71.940830     21.237     0.1483      1.308   11.33928   11.32820 1.1381e-01     2.7953     2.3709    55.2821   999.8280  0.000e+00
     14.995     9.7943     9.7966    103.505  72.032320     21.328     0.1496      1.319   11.33955   11.32848 1.1332e-01     2.7805     2.3389    55.7263   999.8285  0.000e+00
     15.045     9.7936     9.7959    103.375  71.940831     21.400     0.1508      1.330   11.33975   11.32867 1.1309e-01     2.7762     2.3379    55.7396   999.8287  0.000e+00
     15.094     9.7930     9.7953    103.640  72.123812     21.468     0.1557      1.373   11.33989   11.32882 1.1804e-01     2.7275     2.3159    56.0475   999.8291  0.000e+00
     15.153     9.7924     9.7947    103.379  71.940832     21.553     0.1532      1.351   11.34006   11.32898 1.1465e-01     2.7784     2.3220    55.9617   999.8293  0.000e+00
     15.208     9.7916     9.7940    103.381  71.940832     21.631     0.1536      1.355   11.34026   11.32919 1.1314e-01     2.7508     2.3195    55.9972   999.8297  0.000e+00
     15.262     9.7911     9.7935    103.514  72.032323     21.707     0.1630      1.437   11.34040   11.32932 1.1624e-01     2.7529     2.3110    56.1157   999.8300  0.000e+00
     15.328     9.7907     9.7930    103.647  72.123814     21.801     0.1639      1.445   11.34052   11.32944 1.1552e-01     2.7020     2.3155    56.0535   999.8304  0.000e+00
     15.399     9.7904     9.7927    103.736  72.184808     21.903     0.1658      1.462   11.34059   11.32952 1.1750e-01     2.6575     2.3094    56.1379   999.8308  0.000e+00
     15.461     9.7899     9.7922    103.737  72.184809     21.990     0.1665      1.468   11.34072   11.32964 1.1198e-01     2.6406     2.3095    56.1364   999.8311  0.000e+00
     15.516     9.7898     9.7921    103.737  72.184809     22.069     0.1553      1.369   11.34075   11.32967 1.1347e-01     2.6172     2.3011    56.2548   999.8314  0.000e+00
     15.555     9.7897     9.7921    103.869  72.276300     22.125     0.1590      1.402   11.34076   11.32969 1.1321e-01     2.6936     2.3113    56.1112   999.8316  0.000e+00
     15.605     9.7895     9.7919    104.001  72.367792     22.195     0.1540      1.358   11.34080   11.32973 1.1499e-01     2.5833     2.3118    56.1053   999.8319  0.000e+00
     15.672     9.7896     9.7920    104.088  72.428787     22.290     0.1552      1.369   11.34078   11.32971 1.0992e-01     2.5282     2.2942    56.3526   999.8323  0.000e+00
     15.741     9.7894     9.7918    107.289  74.655217     22.389     0.1444      1.274   11.34072   11.32965 1.1407e-01     2.5642     2.2948    56.3437   999.8338  0.000e+00
     15.789     9.7895     9.7918    178.429 124.157664     22.458     0.1452      1.280   11.33833   11.32727 1.1449e-01     2.5515     2.2960    56.3274   999.8599  0.000e+00
     15.844     9.7911     9.7935    233.000 162.137761     22.536     0.1404      1.239   11.33604   11.32499 1.1494e-01     2.5346     2.2826    56.5154   999.8802  0.000e+00
     15.888     9.7956     9.7979    249.789 173.842995     22.598     0.1440      1.271   11.33426   11.32322 1.1557e-01     2.5409     2.2826    56.5154   999.8863  0.000e+00
     15.901     9.8005     9.8028    254.819 177.368143     22.617     0.1464      1.292   11.33278   11.32173 1.1371e-01     2.4837     2.2968    56.3155   999.8878  0.000e+00
     15.913     9.8037     9.8061    259.463 180.617951     22.634     0.1456      1.285   11.33175   11.32070 1.1381e-01     2.4371     2.3144    56.0683   999.8893  0.000e+00
     15.942     9.8046     9.8070    261.351 181.936419     22.675     0.1557      1.374   11.33145   11.32040 1.1449e-01     2.4201     2.3062    56.1838   999.8901  0.000e+00
     15.986     9.8061     9.8084    264.467 184.113611     22.737     0.1601      1.413   11.33095   11.31991 1.1329e-01     2.4349     2.2944    56.3496   999.8913  0.000e+00
     16.017     9.8078     9.8101    265.511 184.849615     22.781     0.1590      1.403   11.33046   11.31942 1.1319e-01     2.4689     2.3013    56.2519   999.8917  0.000e+00
