* Sea-Bird SBE19plus  Data File:
* FileName = C:\Users\dcastle\Documents\CTD\SBE19plus_01908200_2024_03_27_0002.hex
* Software version 2.8.0.119
* Temperature SN = 8200
* Conductivity SN = 8200
* System UpLoad Time = Mar 27 2024 14:47:05
* <ApplicationData>
* <Seaterm232>
* <SoftwareVersion>2.8.0.119</SoftwareVersion>
* <BuildDate>07-Nov-2018</BuildDate>
* </Seaterm232>
* </ApplicationData>
* <InstrumentState>
* <HardwareData DeviceType='SBE19plus' SerialNumber='01908200'>
*
*    <Manufacturer>Sea-Bird Electronics, Inc.</Manufacturer>
*
*    <FirmwareVersion>3.1.8</FirmwareVersion>
*
*    <FirmwareDate>Mar  9 2016 16:22:29</FirmwareDate>
*
*    <CommandSetVersion>1.4</CommandSetVersion>
*
*    <PCBAssembly PCBSerialNum='262471' AssemblyNum='41054K'/>
*
*    <PCBAssembly PCBSerialNum='262475' AssemblyNum='41059E'/>
*
*    <PCBAssembly PCBSerialNum='262477' AssemblyNum='41606B'/>
*
*    <PCBAssembly PCBSerialNum='262473' AssemblyNum='41967C'/>
*
*    <MfgDate>15 Jun 2022</MfgDate>
*
*    <InternalSensors>
*
*       <Sensor id='Main Temperature'>
*
*          <type>temperature0</type>
*
*          <SerialNumber>01908200</SerialNumber>
*
*       </Sensor>
*
*       <Sensor id='Main Conductivity'>
*
*          <type>conductivity-0</type>
*
*          <SerialNumber>01908200</SerialNumber>
*
*       </Sensor>
*
*       <Sensor id='Main Pressure'>
*
*          <type>strain-0</type>
*
*          <SerialNumber>12287607</SerialNumber>
*
*       </Sensor>
*
*    </InternalSensors>
*
*    <ExternalSensors>
*
*       <Sensor id='volt 0'>
*
*          <type>not assigned</type>
*
*          <SerialNumber>not assigned</SerialNumber>
*
*       </Sensor>
*
*       <Sensor id='volt 1'>
*
*          <type>not assigned</type>
*
*          <SerialNumber>not assigned</SerialNumber>
*
*       </Sensor>
*
*       <Sensor id='volt 2'>
*
*          <type>not assigned</type>
*
*          <SerialNumber>not assigned</SerialNumber>
*
*       </Sensor>
*
*       <Sensor id='volt 3'>
*
*          <type>not assigned</type>
*
*          <SerialNumber>not assigned</SerialNumber>
*
*       </Sensor>
*
*       <Sensor id='volt 4'>
*
*          <type>not assigned</type>
*
*          <SerialNumber>not assigned</SerialNumber>
*
*       </Sensor>
*
*       <Sensor id='volt 5'>
*
*          <type>not assigned</type>
*
*          <SerialNumber>not assigned</SerialNumber>
*
*       </Sensor>
*
*       <Sensor id='serial'>
*
*          <type>not assigned</type>
*
*          <SerialNumber>not assigned</SerialNumber>
*
*       </Sensor>
*
*    </ExternalSensors>
*
* </HardwareData>
* <StatusData DeviceType='SBE19plus' SerialNumber='01908200'>
*
*    <DateTime>2024-03-27T14:46:06</DateTime>
*
*    <LoggingState>not logging</LoggingState>
*
*    <EventSummary numEvents='0'/>
*
*    <Power>
*
*       <vMain>12.5</vMain>
*
*       <vLith>8.4</vLith>
*
*       <iMain>61.4</iMain>
*
*       <iPump>62.1</iPump>
*
*       <iExt01>16.4</iExt01>
*
*       <iExt2345>95.1</iExt2345>
*
*    </Power>
*
*    <MemorySummary>
*
*       <Bytes>315307</Bytes>
*
*       <Samples>13709</Samples>
*
*       <SamplesFree>2847079</SamplesFree>
*
*       <SampleLength>23</SampleLength>
*
*       <Profiles>10</Profiles>
*
*    </MemorySummary>
*
* </StatusData>
* <ConfigurationData DeviceType='SBE19plus' SerialNumber='01908200'>
*
*    <ProfileMode>
*
*       <ScansToAverage>1</ScansToAverage>
*
*       <MinimumCondFreq>2645</MinimumCondFreq>
*
*       <PumpDelay>60</PumpDelay>
*
*       <AutoRun>no</AutoRun>
*
*       <IgnoreSwitch>no</IgnoreSwitch>
*
*    </ProfileMode>
*
*    <Battery>
*
*       <Type>alkaline</Type>
*
*       <CutOff>7.5</CutOff>
*
*    </Battery>
*
*    <DataChannels>
*
*       <ExtVolt0>yes</ExtVolt0>
*
*       <ExtVolt1>yes</ExtVolt1>
*
*       <ExtVolt2>yes</ExtVolt2>
*
*       <ExtVolt3>yes</ExtVolt3>
*
*       <ExtVolt4>yes</ExtVolt4>
*
*       <ExtVolt5>yes</ExtVolt5>
*
*       <SBE38>no</SBE38>
*
*       <WETLABS>no</WETLABS>
*
*       <OPTODE>no</OPTODE>
*
*       <SBE63>no</SBE63>
*
*       <SeaFET>no</SeaFET>
*
*       <GTD>no</GTD>
*
*    </DataChannels>
*
*    <EchoCharacters>yes</EchoCharacters>
*
*    <OutputExecutedTag>yes</OutputExecutedTag>
*
*    <OutputFormat>raw HEX</OutputFormat>
*
* </ConfigurationData>
* <CalibrationCoefficients DeviceType='SBE19plus' SerialNumber='01908200'>
*
*    <Calibration format='TEMP1' id='Main Temperature'>
*
*       <SerialNum>01908200</SerialNum>
*
*       <CalDate>01-Jul-22</CalDate>
*
*       <TA0>1.273074e-03</TA0>
*
*       <TA1>2.634339e-04</TA1>
*
*       <TA2>6.102413e-07</TA2>
*
*       <TA3>1.045053e-07</TA3>
*
*       <TOFFSET>0.000000e+00</TOFFSET>
*
*    </Calibration>
*
*    <Calibration format='WBCOND0' id='Main Conductivity'>
*
*       <SerialNum>01908200</SerialNum>
*
*       <CalDate>01-Jul-22</CalDate>
*
*       <G>-1.000954e+00</G>
*
*       <H>1.438363e-01</H>
*
*       <I>-2.457737e-04</I>
*
*       <J>4.045354e-05</J>
*
*       <CPCOR>-9.570000e-08</CPCOR>
*
*       <CTCOR>3.250000e-06</CTCOR>
*
*       <CSLOPE>1.000000e+00</CSLOPE>
*
*    </Calibration>
*
*    <Calibration format='STRAIN0' id='Main Pressure'>
*
*       <SerialNum>12287607</SerialNum>
*
*       <CalDate>20-Jun-22</CalDate>
*
*       <PA0>5.417929e-02</PA0>
*
*       <PA1>1.544327e-03</PA1>
*
*       <PA2>5.749058e-12</PA2>
*
*       <PTCA0>5.243616e+05</PTCA0>
*
*       <PTCA1>5.371927e+00</PTCA1>
*
*       <PTCA2>-1.739922e-01</PTCA2>
*
*       <PTCB0>2.506713e+01</PTCB0>
*
*       <PTCB1>-5.750000e-04</PTCB1>
*
*       <PTCB2>0.000000e+00</PTCB2>
*
*       <PTEMPA0>-6.303813e+01</PTEMPA0>
*
*       <PTEMPA1>5.003359e+01</PTEMPA1>
*
*       <PTEMPA2>-6.230146e-02</PTEMPA2>
*
*       <POFFSET>0.000000e+00</POFFSET>
*
*       <PRANGE>5.080000e+02</PRANGE>
*
*    </Calibration>
*
*    <Calibration format='VOLT0' id='Volt 0'>
*
*       <OFFSET>-4.688400e-02</OFFSET>
*
*       <SLOPE>1.251355e+00</SLOPE>
*
*    </Calibration>
*
*    <Calibration format='VOLT0' id='Volt 1'>
*
*       <OFFSET>-4.659100e-02</OFFSET>
*
*       <SLOPE>1.252580e+00</SLOPE>
*
*    </Calibration>
*
*    <Calibration format='VOLT0' id='Volt 2'>
*
*       <OFFSET>-4.627400e-02</OFFSET>
*
*       <SLOPE>1.252280e+00</SLOPE>
*
*    </Calibration>
*
*    <Calibration format='VOLT0' id='Volt 3'>
*
*       <OFFSET>-4.753100e-02</OFFSET>
*
*       <SLOPE>1.251494e+00</SLOPE>
*
*    </Calibration>
*
*    <Calibration format='VOLT0' id='Volt 4'>
*
*       <OFFSET>-4.641400e-02</OFFSET>
*
*       <SLOPE>1.250582e+00</SLOPE>
*
*    </Calibration>
*
*    <Calibration format='VOLT0' id='Volt 5'>
*
*       <OFFSET>-4.738800e-02</OFFSET>
*
*       <SLOPE>1.251858e+00</SLOPE>
*
*    </Calibration>
*
*    <Calibration format='FREQ0' id='external frequency channel'>
*
*       <EXTFREQSF>1.000018e+00</EXTFREQSF>
*
*    </Calibration>
*
* </CalibrationCoefficients>
* <EventCounters DeviceType='SBE19plus' SerialNumber='01908200'>
*
*    <EventSummary numEvents='0'/>
*
* </EventCounters></InstrumentState>
* <Headers>
*
* cast   2 21 Mar 2024 12:45:14 samples 983 to 1584, avg = 1, stop = mag switch
*
# nquan = 16
# nvalues = 410                                   
# units = specified
# name 0 = depFM: Depth [fresh water, m]
# name 1 = tv290C: Temperature [ITS-90, deg C]
# name 2 = tv268C: Temperature [IPTS-68, deg C]
# name 3 = specc: Specific Conductance [uS/cm]
# name 4 = c0uS/cm: Conductivity [uS/cm]
# name 5 = prdE: Pressure, Strain Gauge [psi]
# name 6 = sbeox0Mg/L: Oxygen, SBE 43 [mg/l]
# name 7 = sbeox0PS: Oxygen, SBE 43 [% saturation]
# name 8 = oxsolMg/L: Oxygen Saturation, Garcia & Gordon [mg/l]
# name 9 = oxsatMg/L: Oxygen Saturation, Weiss [mg/l]
# name 10 = par/sat/log: PAR/Logarithmic, Satlantic [umol photons/m^2/sec]
# name 11 = flCM: Fluorescence, Chelsea Mini Chl Con [ug/l]
# name 12 = CStarAt0: Beam Attenuation, WET Labs C-Star [1/m]
# name 13 = CStarTr0: Beam Transmission, WET Labs C-Star [%]
# name 14 = density00: Density [density, kg/m^3]
# name 15 = flag:  0.000e+00
# span 0 =     -0.517,     16.072                 
# span 1 =     9.9154,    18.3992                 
# span 2 =     9.9177,    18.4037                 
# span 3 =      0.443,    223.825                 
# span 4 =   0.378993, 156.335725                 
# span 5 =     -0.736,     22.860                 
# span 6 =    -0.7599,     9.9148                 
# span 7 =     -6.903,    105.230                 
# span 8 =    9.38729,   11.30669                 
# span 9 =    9.37223,   11.29561                 
# span 10 = 1.1258e-01, 4.6527e+03                
# span 11 =    -0.3612,    36.3321                
# span 12 =     1.6611,    55.2620                
# span 13 =    -1.1062,    66.0166                
# span 14 =   998.5629,   999.8666                
# span 15 = 0.0000e+00, 0.0000e+00                
# interval = seconds: 0.25
# start_time = Mar 21 2024 12:45:14 [Instrument's time stamp, header]
# bad_flag = -9.990e-29
# <Sensors count="9" >
#   <sensor Channel="1" >
#     <!-- Count, Temperature -->
#     <TemperatureSensor SensorID="58" >
#       <SerialNumber>8200</SerialNumber>
#       <CalibrationDate>01-Jul-22</CalibrationDate>
#       <A0>1.27307364e-003</A0>
#       <A1>2.63433881e-004</A1>
#       <A2>6.10241346e-007</A2>
#       <A3>1.04505265e-007</A3>
#       <Slope>1.00000000</Slope>
#       <Offset>0.0000</Offset>
#     </TemperatureSensor>
#   </sensor>
#   <sensor Channel="2" >
#     <!-- Frequency 0, Conductivity -->
#     <ConductivitySensor SensorID="3" >
#       <SerialNumber>8200</SerialNumber>
#       <CalibrationDate>01-Jul-22</CalibrationDate>
#       <UseG_J>1</UseG_J>
#       <!-- Cell const and series R are applicable only for wide range sensors. -->
#       <SeriesR>0.0000</SeriesR>
#       <CellConst>2000.0000</CellConst>
#       <ConductivityType>0</ConductivityType>
#       <Coefficients equation="0" >
#         <A>0.00000000e+000</A>
#         <B>0.00000000e+000</B>
#         <C>0.00000000e+000</C>
#         <D>0.00000000e+000</D>
#         <M>0.0</M>
#         <CPcor>-9.57000000e-008</CPcor>
#       </Coefficients>
#       <Coefficients equation="1" >
#         <G>-1.00095430e+000</G>
#         <H>1.43836252e-001</H>
#         <I>-2.45773667e-004</I>
#         <J>4.04535414e-005</J>
#         <CPcor>-9.57000000e-008</CPcor>
#         <CTcor>3.2500e-006</CTcor>
#         <!-- WBOTC not applicable unless ConductivityType = 1. -->
#         <WBOTC>0.00000000e+000</WBOTC>
#       </Coefficients>
#       <Slope>1.00000000</Slope>
#       <Offset>0.00000</Offset>
#     </ConductivitySensor>
#   </sensor>
#   <sensor Channel="3" >
#     <!-- Count, Pressure, Strain Gauge -->
#     <PressureSensor SensorID="46" >
#       <SerialNumber>8200</SerialNumber>
#       <CalibrationDate>20-Jun-22</CalibrationDate>
#       <PA0>5.41792865e-002</PA0>
#       <PA1>1.54432654e-003</PA1>
#       <PA2>5.74905779e-012</PA2>
#       <PTEMPA0>-6.30381273e+001</PTEMPA0>
#       <PTEMPA1>5.00335947e+001</PTEMPA1>
#       <PTEMPA2>-6.23014614e-002</PTEMPA2>
#       <PTCA0>5.24361650e+005</PTCA0>
#       <PTCA1>5.37192737e+000</PTCA1>
#       <PTCA2>-1.73992204e-001</PTCA2>
#       <PTCB0>2.50671250e+001</PTCB0>
#       <PTCB1>-5.75000000e-004</PTCB1>
#       <PTCB2>0.00000000e+000</PTCB2>
#       <Offset>0.000000</Offset>
#     </PressureSensor>
#   </sensor>
#   <sensor Channel="4" >
#     <!-- A/D voltage 0, PAR/Logarithmic, Satlantic -->
#     <PARLog_SatlanticSensor SensorID="76" >
#       <SerialNumber>2214</SerialNumber>
#       <CalibrationDate>5/20/22</CalibrationDate>
#       <a0>9.9290e-001</a0>
#       <a1>8.0312e-001</a1>
#       <Im>1.3589e+000</Im>
#       <ConversionUnits>1</ConversionUnits>
#       <Multiplier>1.0000e+000</Multiplier>
#     </PARLog_SatlanticSensor>
#   </sensor>
#   <sensor Channel="5" >
#     <!-- A/D voltage 1, Free -->
#   </sensor>
#   <sensor Channel="6" >
#     <!-- A/D voltage 2, Oxygen, SBE 43 -->
#     <OxygenSensor SensorID="38" >
#       <SerialNumber>0268</SerialNumber>
#       <CalibrationDate>29-Feb-20</CalibrationDate>
#       <Use2007Equation>1</Use2007Equation>
#       <CalibrationCoefficients equation="0" >
#         <!-- Coefficients for Owens-Millard equation. -->
#         <Boc>0.0000</Boc>
#         <Soc>0.0000e+000</Soc>
#         <offset>0.0000</offset>
#         <Pcor>0.00e+000</Pcor>
#         <Tcor>0.0000</Tcor>
#         <Tau>0.0</Tau>
#       </CalibrationCoefficients>
#       <CalibrationCoefficients equation="1" >
#         <!-- Coefficients for Sea-Bird equation - SBE calibration in 2007 and later. -->
#         <Soc>5.4910e-001</Soc>
#         <offset>-0.4386</offset>
#         <A>-3.6337e-003</A>
#         <B> 1.0518e-004</B>
#         <C>-1.0368e-006</C>
#         <D0> 2.5826e+000</D0>
#         <D1> 1.92634e-004</D1>
#         <D2>-4.64803e-002</D2>
#         <E> 3.6000e-002</E>
#         <Tau20> 1.2800</Tau20>
#         <H1>-3.3000e-002</H1>
#         <H2> 5.0000e+003</H2>
#         <H3> 1.4500e+003</H3>
#       </CalibrationCoefficients>
#     </OxygenSensor>
#   </sensor>
#   <sensor Channel="7" >
#     <!-- A/D voltage 3, Transmissometer, WET Labs C-Star -->
#     <WET_LabsCStar SensorID="71" >
#       <SerialNumber>CST-612PR</SerialNumber>
#       <CalibrationDate>6/27/02</CalibrationDate>
#       <M>19.4066</M>
#       <B>-1.1062</B>
#       <PathLength>0.250</PathLength>
#     </WET_LabsCStar>
#   </sensor>
#   <sensor Channel="8" >
#     <!-- A/D voltage 4, Fluorometer, Chelsea Minitracka -->
#     <FluoroChelseaMinitrackaSensor SensorID="6" >
#       <SerialNumber>175011</SerialNumber>
#       <CalibrationDate>26-Mar-97</CalibrationDate>
#       <Vacetone>0.013</Vacetone>
#       <Vacetone100>3.612</Vacetone100>
#       <Offset>0.000</Offset>
#     </FluoroChelseaMinitrackaSensor>
#   </sensor>
#   <sensor Channel="9" >
#     <!-- A/D voltage 5, Free -->
#   </sensor>
# </Sensors>
# datcnv_date = Jun 05 2024 15:40:42, 7.26.7.129 [datcnv_vars = 15]
# datcnv_in = C:\Users\ir64\OneDrive - The University of Waikato\Documents\Sampling\CTD casts\2024.03 CTD casts\2024.03 HEX files\2024.03.22 second sampling\2024.03 Okaro 2 0002.hex C:\Users\ir64\OneDrive - The University of Waikato\Documents\Sampling\CTD casts\2024.03 CTD casts\2024.03 HEX files\2024.03.22 second sampling\CTD#3 for March 2024 deploymentV7.xmlcon
# datcnv_skipover = 0
# datcnv_ox_hysteresis_correction = yes
# datcnv_ox_tau_correction = yes
# file_type = ascii
*END*
     -0.514    17.7449    17.7492      1.170   1.000517     -0.731     9.3923     98.696    9.51636    9.50178 2.3290e+02    -0.3612    55.2620    -1.1062   998.6482  0.000e+00
     -0.514    17.7529    17.7571      1.032   0.882130     -0.731     9.3875     98.662    9.51481    9.50022 2.3103e+02    -0.3612    55.2620    -1.1062   998.6468  0.000e+00
     -0.514    17.7595    17.7638      0.858   0.734147     -0.731     9.3823     98.621    9.51351    9.49891 2.3957e+02     0.5334    55.2620    -1.1062   998.6456  0.000e+00
     -0.515    17.7659    17.7701      0.443   0.378993     -0.733     9.3799     98.609    9.51225    9.49766 6.0525e+02    -0.3612    55.2620    -1.1062   998.6444  0.000e+00
     -0.515    17.7714    17.7757      2.069   1.770049     -0.733     9.3819     98.641    9.51116    9.49656 1.8089e+03    -0.3612    55.2620    -1.1062   998.6435  0.000e+00
     -0.515    17.7710    17.7752      7.225   6.180632     -0.733     9.3835     98.657    9.51116    9.49656 2.0504e+03    -0.3612    55.2620    -1.1062   998.6447  0.000e+00
     -0.517    17.7417    17.7460      4.079   3.486805     -0.736     9.3867     98.631    9.51695    9.50237 2.2291e+03    13.5814    55.2620    -1.1062   998.6493  0.000e+00
     -0.515    17.7272    17.7314      4.011   3.427604     -0.733     9.3904     98.641    9.51981    9.50524 2.3637e+03    12.3879     6.1512    21.4852   998.6519  0.000e+00
     -0.412    17.7323    17.7365     51.399  43.932315     -0.586     9.3887     98.644    9.51774    9.50316 2.3709e+03    11.2473     1.6611    66.0166   998.6660  0.000e+00
     -0.240    17.8773    17.8815     95.084  81.547065     -0.342     9.3585     98.632    9.48827    9.47359 2.3580e+03    13.0556     9.1440    10.1673   998.6552  0.000e+00
     -0.053    18.0722    18.0765     99.449  85.677934     -0.076     9.3123     98.540    9.45026    9.43544 1.6617e+03    10.9188     3.7876    38.7938   998.6215  0.000e+00
      0.090    18.2023    18.2067     99.011  85.559011      0.128     9.2990     98.662    9.42512    9.41020 1.1924e+03     8.2117     2.2251    57.3342   998.5978  0.000e+00
      0.158    18.2468    18.2512     98.909  85.559000      0.225     9.3263     99.041    9.41655    9.40160 6.8248e+02     6.9270     1.9280    61.7554   998.5897  0.000e+00
      0.207    18.2502    18.2546     98.798  85.469834      0.295     9.4079     99.916    9.41589    9.40094 6.4489e+02     5.8755     1.8278    63.3219   998.5893  0.000e+00
      0.243    18.2408    18.2452     99.061  85.677889      0.346     9.5184    101.069    9.41771    9.40276 9.3251e+02     5.0700     1.7705    64.2354   998.5913  0.000e+00
      0.246    18.2309    18.2352     99.221  85.796780      0.350     9.6348    102.284    9.41961    9.40467 1.0540e+03     4.4637     2.2368    57.1669   998.5932  0.000e+00
      0.254    18.2276    18.2320     99.091  85.677893      0.361     9.7461    103.459    9.42024    9.40530 1.4226e+03     3.9401     3.2146    44.7696   998.5938  0.000e+00
      0.259    18.2231    18.2274     99.033  85.618450      0.369     9.8262    104.300    9.42112    9.40619 8.8366e+02     3.5330     4.6218    31.4913   998.5947  0.000e+00
      0.264    18.2203    18.2246     98.901  85.499565      0.375     9.8926    104.998    9.42166    9.40673 1.4528e+03     3.1727     2.5655    52.6569   998.5952  0.000e+00
      0.262    18.2182    18.2225     98.906  85.499565      0.372     9.9148    105.230    9.42207    9.40714 8.4159e+02     2.7317     2.3589    55.4479   998.5956  0.000e+00
      0.263    18.2193    18.2237     98.869  85.469843      0.374     9.9144    105.228    9.42185    9.40692 1.5878e+03     2.7911     1.8886    62.3654   998.5954  0.000e+00
      0.262    18.2316    18.2360     98.841  85.469840      0.372     9.8767    104.854    9.41949    9.40455 1.2614e+03     3.7090     2.3208    55.9780   998.5930  0.000e+00
      0.259    18.2470    18.2514     98.840  85.499557      0.369     9.8358    104.453    9.41652    9.40157 1.1852e+03     2.6766     1.8672    62.7000   998.5901  0.000e+00
      0.263    18.2573    18.2617     98.817  85.499554      0.374     9.7797    103.879    9.41453    9.39957 2.5157e+03     2.4583     1.7979    63.7957   998.5882  0.000e+00
      0.265    18.2638    18.2682     98.870  85.558996      0.377     9.5683    101.647    9.41328    9.39831 1.6755e+03     2.3183     1.8001    63.7616   998.5870  0.000e+00
      0.265    18.2702    18.2746     98.856  85.558994      0.377     9.3330     99.160    9.41204    9.39708 1.1697e+03     2.0385     1.7583    64.4309   998.5858  0.000e+00
      0.264    18.2724    18.2768     98.782  85.499550      0.375     9.1147     96.845    9.41162    9.39666 1.4547e+03     2.1466     1.7582    64.4323   998.5854  0.000e+00
      0.264    18.2718    18.2762     98.852  85.558993      0.375     8.8141     93.650    9.41174    9.39677 7.1707e+02     2.2590     1.7474    64.6071   998.5855  0.000e+00
      0.263    18.2696    18.2740     98.857  85.558994      0.374     8.4166     89.422    9.41216    9.39720 9.9903e+02     1.7438     1.7504    64.5582   998.5859  0.000e+00
      0.263    18.2669    18.2713     98.795  85.499552      0.374     7.9923     84.910    9.41269    9.39772 9.3231e+02     2.1869     1.7480    64.5967   998.5864  0.000e+00
      0.261    18.2636    18.2680     98.802  85.499552      0.371     7.6152     80.898    9.41333    9.39837 2.3415e+03     2.0364     1.7643    64.3346   998.5870  0.000e+00
      0.261    18.2608    18.2652     98.809  85.499553      0.371     7.2980     77.524    9.41387    9.39891 1.1434e+03     1.7778     1.7517    64.5375   998.5876  0.000e+00
      0.267    18.2579    18.2623     98.884  85.558997      0.380     7.0853     75.260    9.41442    9.39947 8.8909e+02     2.2547     1.7523    64.5271   998.5882  0.000e+00
      0.271    18.2536    18.2580     98.963  85.618442      0.386     6.9662     73.989    9.41525    9.40029 1.5092e+03     2.6851     1.7585    64.4279   998.5890  0.000e+00
      0.278    18.2502    18.2546     99.108  85.737331      0.395     6.9054     73.338    9.41589    9.40093 4.0276e+02     3.7154     1.7704    64.2369   998.5897  0.000e+00
      0.277    18.2490    18.2534     98.973  85.618443      0.394     6.9024     73.304    9.41613    9.40117 4.7958e+02     6.4564     1.7541    64.4990   998.5899  0.000e+00
      0.276    18.2494    18.2537     98.904  85.559000      0.392     6.9093     73.378    9.41606    9.40111 1.2268e+03     4.3153     1.7506    64.5552   998.5898  0.000e+00
      0.279    18.2501    18.2544     98.902  85.559000      0.397     6.9276     73.573    9.41592    9.40097 2.0113e+03     1.5064     1.7478    64.5997   998.5897  0.000e+00
      0.291    18.2496    18.2540     98.834  85.499557      0.414     6.9298     73.596    9.41601    9.40106 3.4434e+03    -0.3612     1.7459    64.6308   998.5898  0.000e+00
      0.299    18.2478    18.2522     98.838  85.499557      0.425     6.9396     73.697    9.41637    9.40141 9.5355e+02     1.3135     1.7710    64.2265   998.5902  0.000e+00
      0.304    18.2429    18.2473     98.918  85.559002      0.432     6.9120     73.397    9.41731    9.40236 1.2907e+03     4.3958     1.7497    64.5700   998.5911  0.000e+00
      0.301    18.2385    18.2429     98.928  85.559003      0.428     6.8640     72.881    9.41815    9.40321 2.2276e+03     1.7608     1.7553    64.4797   998.5920  0.000e+00
      0.296    18.2360    18.2404     98.865  85.499560      0.422     6.7968     72.164    9.41863    9.40368 1.2969e+03    -0.3612     1.7569    64.4531   998.5924  0.000e+00
      0.302    18.2327    18.2371     98.873  85.499561      0.429     6.7375     71.529    9.41927    9.40433 9.2459e+02     0.9998     1.7539    64.5019   998.5930  0.000e+00
      0.315    18.2324    18.2367     98.874  85.499562      0.448     6.6726     70.839    9.41933    9.40439 6.2380e+02     4.4361     1.7437    64.6663   998.5931  0.000e+00
      0.326    18.2341    18.2385     98.835  85.469840      0.463     6.6245     70.332    9.41900    9.40406 8.4639e+02     9.6447     1.7414    64.7033   998.5929  0.000e+00
      0.352    18.2354    18.2398     98.832  85.469839      0.500     6.5810     69.872    9.41874    9.40380 9.8063e+02     6.9503     1.7328    64.8425   998.5927  0.000e+00
      0.377    18.2371    18.2415     99.207  85.796779      0.536     6.5563     69.611    9.41841    9.40347 5.5710e+02     4.7096     1.7503    64.5597   998.5927  0.000e+00
      0.371    18.2365    18.2409     99.449  86.004835      0.528     6.5435     69.475    9.41853    9.40358 6.0011e+02     5.2502     1.7645    64.3317   998.5928  0.000e+00
      0.376    18.2381    18.2424     98.929  85.559004      0.534     6.5406     69.446    9.41824    9.40329 5.3759e+02     1.0676     1.7401    64.7255   998.5924  0.000e+00
      0.399    18.2392    18.2436     98.824  85.469839      0.567     6.5334     69.371    9.41802    9.40307 3.1070e+03     2.2357     1.7544    64.4945   998.5922  0.000e+00
      0.425    18.2399    18.2443     99.063  85.677891      0.604     6.5139     69.165    9.41788    9.40293 5.0709e+02     2.8123     1.7500    64.5656   998.5923  0.000e+00
      0.433    18.2393    18.2437     99.442  86.004834      0.616     6.5003     69.020    9.41799    9.40304 6.6859e+02     3.5839     1.7508    64.5523   998.5926  0.000e+00
      0.422    18.2431    18.2474     99.708  86.242613      0.601     6.5375     69.420    9.41725    9.40231 1.2711e+03     8.3600     1.7657    64.3124   998.5919  0.000e+00
      0.409    18.2560    18.2604     99.301  85.915663      0.582     6.6191     70.306    9.41477    9.39981 2.0047e+03     7.8089     1.7619    64.3731   998.5893  0.000e+00
      0.404    18.2612    18.2656     98.876  85.558998      0.575     6.7487     71.690    9.41378    9.39882 7.2845e+02    -0.3612     1.7784    64.1081   998.5881  0.000e+00
      0.409    18.2590    18.2634     98.778  85.469833      0.582     6.8764     73.043    9.41421    9.39925 7.4996e+02     2.7487     1.7688    64.2621   998.5885  0.000e+00
      0.424    18.2544    18.2587     98.823  85.499556      0.602     6.9917     74.260    9.41510    9.40014 1.0122e+03     3.7726     1.7707    64.2310   998.5895  0.000e+00
      0.485    18.2498    18.2542     98.834  85.499558      0.690     7.0556     74.932    9.41598    9.40102 1.5109e+03    -0.3612     1.7486    64.5878   998.5906  0.000e+00
      0.534    18.2439    18.2483     99.706  86.242614      0.760     7.0893     75.281    9.41709    9.40214 1.1489e+03    -0.3612     1.7721    64.2088   998.5923  0.000e+00
      0.540    18.2510    18.2554     99.999  86.510118      0.768     7.1293     75.717    9.41571    9.40076 4.2708e+02    -0.3612     1.7833    64.0296   998.5911  0.000e+00
      0.541    18.3110    18.3154     99.689  86.361486      0.769     7.1722     76.266    9.40419    9.38920 9.1054e+02    -0.3612     1.7829    64.0355   998.5797  0.000e+00
      0.547    18.3802    18.3846     99.256  86.123686      0.779     7.2234     76.919    9.39093    9.37588 9.5690e+02    -0.3612     1.7638    64.3420   998.5665  0.000e+00
      0.552    18.3992    18.4037     99.144  86.064235      0.785     7.2720     77.466    9.38729    9.37223 5.2423e+02     2.1191     1.7551    64.4827   998.5629  0.000e+00
      0.556    18.3849    18.3893     99.040  85.945350      0.791     7.3161     77.914    9.39004    9.37499 7.5407e+02    -0.3612     1.7683    64.2695   998.5656  0.000e+00
      0.569    18.3600    18.3644     99.062  85.915635      0.809     7.3593     78.334    9.39481    9.37978 5.2366e+02    -0.3612     1.7783    64.1096   998.5704  0.000e+00
      0.580    18.3330    18.3374     99.227  86.004809      0.825     7.3712     78.417    9.39999    9.38498 6.5384e+02     1.7248     1.7873    63.9659   998.5756  0.000e+00
      0.592    18.3105    18.3149     99.278  86.004816      0.842     7.3402     78.051    9.40429    9.38929 1.1646e+03     3.2681     1.7800    64.0829   998.5799  0.000e+00
      0.607    18.2977    18.3021     99.308  86.004819      0.863     7.2671     77.254    9.40675    9.39176 5.6955e+02    -0.3612     1.7827    64.0385   998.5823  0.000e+00
      0.615    18.2890    18.2934     99.396  86.064267      0.874     7.1564     76.064    9.40842    9.39344 1.4931e+03    -0.3612     1.7926    63.8816   998.5840  0.000e+00
      0.608    18.2848    18.2892     99.543  86.183158      0.865     7.0353     74.770    9.40923    9.39425 1.1058e+03    -0.3612     1.7949    63.8445   998.5849  0.000e+00
      0.588    18.2875    18.2919     99.469  86.123712      0.836     6.9160     73.506    9.40871    9.39373 1.6881e+03     3.7662     1.7780    64.1140   998.5842  0.000e+00
      0.605    18.3083    18.3127     98.837  85.618430      0.860     6.8077     72.386    9.40472    9.38973 9.5585e+02    -0.3612     1.8081    63.6343   998.5802  0.000e+00
      0.653    18.2939    18.2983     99.008  85.737321      0.928     6.7111     71.338    9.40749    9.39250 6.5973e+02     1.7014     1.8137    63.5455   998.5832  0.000e+00
      0.669    18.2705    18.2749     99.439  86.064272      0.952     6.6661     70.826    9.41198    9.39701 8.5664e+02     4.3534     1.7906    63.9126   998.5878  0.000e+00
      0.669    18.2872    18.2916     99.401  86.064268      0.952     6.6890     71.093    9.40877    9.39379 1.4717e+03     3.7069     1.8026    63.7216   998.5846  0.000e+00
      0.673    18.3202    18.3246     99.256  86.004814      0.958     6.7764     72.071    9.40243    9.38743 1.1651e+03     1.9749     1.7683    64.2695   998.5784  0.000e+00
      0.691    18.3367    18.3411     99.047  85.856198      0.982     6.8841     73.241    9.39927    9.38425 5.0709e+02     0.9786     1.8192    63.4581   998.5753  0.000e+00
      0.697    18.3415    18.3459     99.105  85.915641      0.992     6.9763     74.229    9.39836    9.38334 6.2162e+02     1.1312     1.7956    63.8327   998.5744  0.000e+00
      0.695    18.3389    18.3433     99.213  86.004809      0.989     7.0389     74.891    9.39884    9.38382 1.1759e+03     2.0216     1.7736    64.1851   998.5750  0.000e+00
      0.689    18.3352    18.3396     99.359  86.123699      0.979     7.0533     75.039    9.39956    9.38455 5.2023e+02    -0.3612     1.8199    63.4462   998.5757  0.000e+00
      0.684    18.3325    18.3369     99.297  86.064255      0.973     7.0229     74.711    9.40007    9.38506 1.6591e+03    -0.3612     1.8368    63.1783   998.5761  0.000e+00
      0.679    18.3301    18.3345     99.165  85.945366      0.965     6.9554     73.989    9.40055    9.38554 1.5944e+03     1.8710     1.8012    63.7439   998.5765  0.000e+00
      0.678    18.3275    18.3319     99.137  85.915645      0.964     6.8498     72.862    9.40104    9.38603 7.1410e+02    -0.3612     1.7923    63.8860   998.5770  0.000e+00
      0.684    18.3246    18.3290     99.143  85.915646      0.973     6.7317     71.602    9.40159    9.38659 6.9256e+02    -0.3612     1.7854    63.9956   998.5776  0.000e+00
      0.690    18.3204    18.3248     99.325  86.064258      0.981     6.6149     70.354    9.40240    9.38739 1.3686e+03    -0.3612     1.7691    64.2576   998.5785  0.000e+00
      0.690    18.3177    18.3221     99.399  86.123704      0.981     6.5177     69.316    9.40292    9.38792 1.0673e+03    -0.3612     1.7793    64.0933   998.5790  0.000e+00
      0.690    18.3163    18.3207     99.403  86.123705      0.981     6.4251     68.329    9.40319    9.38819 3.6401e+03    -0.3612     1.7766    64.1362   998.5793  0.000e+00
      0.686    18.3204    18.3248     99.325  86.064258      0.976     6.3505     67.541    9.40240    9.38739 6.9438e+02    -0.3612     1.7787    64.1036   998.5784  0.000e+00
      0.685    18.3269    18.3313     99.172  85.945367      0.975     6.2878     66.883    9.40115    9.38615 5.3162e+02     0.8429     1.7902    63.9186   998.5772  0.000e+00
      0.690    18.3277    18.3321     99.171  85.945367      0.981     6.2377     66.352    9.40100    9.38599 6.2984e+02     0.2324     1.8011    63.7453   998.5770  0.000e+00
      0.694    18.3271    18.3315     99.069  85.856201      0.987     6.1898     65.841    9.40112    9.38611 4.6634e+02    -0.3443     1.7940    63.8579   998.5771  0.000e+00
      0.698    18.3259    18.3303     99.243  86.004812      0.993     6.1454     65.367    9.40134    9.38633 6.6176e+02    -0.3612     1.7720    64.2103   998.5774  0.000e+00
      0.699    18.3258    18.3302     99.449  86.183147      0.995     6.1025     64.910    9.40135    9.38634 7.0278e+02    -0.3612     1.7834    64.0281   998.5775  0.000e+00
      0.697    18.3270    18.3314     99.447  86.183147      0.992     6.0645     64.509    9.40113    9.38612 4.5635e+02    -0.3612     1.7793    64.0933   998.5773  0.000e+00
      0.694    18.3370    18.3414     99.424  86.183144      0.987     6.0306     64.161    9.39921    9.38419 1.4921e+03    -0.3612     1.7691    64.2576   998.5754  0.000e+00
      0.692    18.3490    18.3534     99.190  86.004806      0.984     5.9997     63.848    9.39692    9.38189 8.1674e+02    -0.3612     1.7903    63.9171   998.5730  0.000e+00
      0.692    18.3487    18.3531     99.122  85.945361      0.984     5.9823     63.662    9.39697    9.38195 4.6527e+03     0.1921     1.7788    64.1022   998.5731  0.000e+00
      0.693    18.3476    18.3520     99.125  85.945362      0.986     5.9538     63.358    9.39717    9.38215 8.6738e+02     0.9192     1.8035    63.7068   998.5733  0.000e+00
      0.694    18.3476    18.3520     99.262  86.064251      0.987     5.9301     63.105    9.39717    9.38215 1.0147e+03     2.0873     1.7936    63.8653   998.5733  0.000e+00
      0.694    18.3461    18.3505     99.403  86.183141      0.987     5.9026     62.811    9.39747    9.38245 2.2034e+03     3.8531     1.7881    63.9526   998.5737  0.000e+00
      0.692    18.3449    18.3493     99.405  86.183142      0.984     5.8833     62.603    9.39769    9.38267 1.6147e+03     4.0397     1.7884    63.9482   998.5739  0.000e+00
      0.691    18.3440    18.3484     99.476  86.242587      0.982     5.8492     62.239    9.39787    9.38285 6.1540e+02     1.7184     1.7903    63.9171   998.5741  0.000e+00
      0.689    18.3425    18.3469     99.342  86.123697      0.979     5.8168     61.893    9.39816    9.38314 7.4018e+02     2.3311     1.7738    64.1821   998.5743  0.000e+00
      0.689    18.3410    18.3454     99.209  86.004808      0.979     5.7912     61.619    9.39845    9.38343 5.9959e+02     4.1097     1.7860    63.9867   998.5745  0.000e+00
      0.715    18.3392    18.3436     98.973  85.796753      1.016     5.7623     61.309    9.39880    9.38378 9.9991e+02     0.2006     1.7650    64.3228   998.5749  0.000e+00
      0.789    18.3275    18.3319     98.862  85.677869      1.122     5.7346     61.000    9.40104    9.38603 6.4096e+02    -0.3612     1.7946    63.8490   998.5774  0.000e+00
      0.843    18.2838    18.2882     99.477  86.123715      1.199     5.7283     60.879    9.40941    9.39444 6.7138e+02    -0.3612     1.8018    63.7335   998.5861  0.000e+00
      0.862    18.2520    18.2564     99.860  86.391229      1.227     5.7926     61.521    9.41553    9.40058 9.5899e+02    -0.3612     1.7826    64.0415   998.5923  0.000e+00
      0.896    18.3212    18.3256     99.323  86.064260      1.275     5.9727     63.524    9.40225    9.38724 6.4082e+02    -0.3612     1.7790    64.0977   998.5792  0.000e+00
      0.947    18.3668    18.3712     99.081  85.945358      1.347     6.2353     66.379    9.39350    9.37846 9.0756e+02    -0.3612     1.7736    64.1851   998.5708  0.000e+00
      1.001    18.3579    18.3623     99.067  85.915639      1.424     6.5557     69.777    9.39522    9.38019 1.1560e+03    -0.3612     1.7746    64.1688   998.5727  0.000e+00
      1.069    18.3260    18.3304     99.072  85.856204      1.520     6.8767     73.146    9.40133    9.38632 8.2699e+02    -0.3612     1.7960    63.8268   998.5790  0.000e+00
      1.137    18.2853    18.2896     99.268  85.945383      1.618     7.1747     76.252    9.40915    9.39417 6.0565e+02    -0.3612     1.7834    64.0281   998.5871  0.000e+00
      1.223    18.2469    18.2513     99.253  85.856227      1.740     7.4196     78.793    9.41652    9.40157 1.1079e+03    -0.3612     1.7998    63.7661   998.5947  0.000e+00
      1.303    18.2227    18.2271     99.377  85.915679      1.854     7.5735     80.388    9.42118    9.40625 8.7961e+02    -0.3612     1.7992    63.7749   998.5996  0.000e+00
      1.373    18.2107    18.2151     99.577  86.064295      1.953     7.6168     80.827    9.42348    9.40856 4.8253e+02    -0.3612     1.7859    63.9882   998.6022  0.000e+00
      1.448    18.2036    18.2080     99.524  86.004852      2.059     7.5451     80.055    9.42485    9.40993 6.1392e+02    -0.3612     1.8092    63.6165   998.6039  0.000e+00
      1.516    18.2024    18.2068     99.527  86.004853      2.157     7.4202     78.728    9.42509    9.41017 5.2366e+02    -0.3612     1.7948    63.8460   998.6044  0.000e+00
      1.577    18.2024    18.2068     99.596  86.064299      2.243     7.2507     76.930    9.42509    9.41017 4.3027e+02    -0.3612     1.7790    64.0992   998.6047  0.000e+00
      1.628    18.2007    18.2050     99.531  86.004855      2.316     7.0663     74.971    9.42543    9.41051 4.6298e+02    -0.3612     1.7838    64.0222   998.6052  0.000e+00
      1.684    18.1991    18.2035     99.466  85.945411      2.395     6.8877     73.073    9.42573    9.41082 8.4899e+02    -0.3612     1.8028    63.7187   998.6058  0.000e+00
      1.723    18.2009    18.2053     99.737  86.183190      2.450     6.7281     71.383    9.42537    9.41045 4.6511e+02    -0.3612     1.8028    63.7187   998.6057  0.000e+00
      1.764    18.2174    18.2218     99.493  86.004851      2.509     6.5878     69.918    9.42220    9.40728 5.7556e+02    -0.1513     1.8036    63.7054   998.6027  0.000e+00
      1.811    18.2303    18.2347     99.394  85.945403      2.575     6.4764     68.753    9.41971    9.40477 6.4236e+02     0.4232     1.8017    63.7365   998.6005  0.000e+00
      1.856    18.2363    18.2407     99.380  85.945402      2.640     6.3893     67.837    9.41856    9.40362 4.9993e+02     0.6563     1.7949    63.8445   998.5995  0.000e+00
      1.902    18.2365    18.2409     99.517  86.064292      2.705     6.3296     67.204    9.41852    9.40358 4.3377e+02     1.3835     1.8009    63.7483   998.5998  0.000e+00
      1.944    18.2367    18.2410     99.448  86.004847      2.766     6.2874     66.756    9.41849    9.40355 4.8031e+02     1.3644     1.7972    63.8075   998.5999  0.000e+00
      2.000    18.2332    18.2376     99.353  85.915682      2.844     6.2542     66.398    9.41915    9.40421 4.3921e+02     2.0025     1.8002    63.7601   998.6008  0.000e+00
      2.069    18.2281    18.2324     99.365  85.915684      2.943     6.2259     66.092    9.42015    9.40521 4.0943e+02     2.2802     1.7864    63.9808   998.6021  0.000e+00
      2.127    18.2218    18.2261     99.482  86.004853      3.025     6.1765     65.558    9.42136    9.40643 4.4056e+02     2.3819     1.7839    64.0193   998.6035  0.000e+00
      2.181    18.2174    18.2218     99.561  86.064299      3.102     6.1436     65.204    9.42220    9.40727 4.2345e+02     2.2145     1.7922    63.8875   998.6046  0.000e+00
      2.238    18.2245    18.2289     99.545  86.064298      3.183     6.0939     64.686    9.42084    9.40590 5.3665e+02     2.3226     1.7895    63.9304   998.6035  0.000e+00
      2.293    18.2296    18.2340     99.396  85.945407      3.261     6.0516     64.243    9.41984    9.40491 4.1402e+02     2.5261     1.8044    63.6920   998.6028  0.000e+00
      2.343    18.2277    18.2321     99.469  86.004853      3.333     6.0087     63.785    9.42021    9.40528 4.0400e+02     2.9204     1.7830    64.0341   998.6034  0.000e+00
      2.396    18.2289    18.2332     99.535  86.064298      3.408     5.9747     63.426    9.41999    9.40506 3.9777e+02     2.3607     1.7801    64.0814   998.6034  0.000e+00
      2.443    18.2324    18.2367     99.458  86.004852      3.475     5.9365     63.025    9.41932    9.40438 4.3605e+02     2.4031     1.7881    63.9526   998.6030  0.000e+00
      2.487    18.2335    18.2379     99.455  86.004853      3.538     5.8963     62.599    9.41910    9.40416 4.4706e+02     2.9946     1.7934    63.8682   998.6030  0.000e+00
      2.543    18.2353    18.2397     99.382  85.945408      3.617     5.8713     62.337    9.41875    9.40381 4.0809e+02     3.2129     1.8075    63.6432   998.6028  0.000e+00
      2.602    18.2366    18.2409     99.345  85.915686      3.700     5.8298     61.897    9.41851    9.40357 3.1539e+02     3.2617     1.8038    63.7024   998.6029  0.000e+00
      2.658    18.2367    18.2410     99.276  85.856242      3.781     5.7954     61.532    9.41850    9.40355 3.7439e+02     3.6475     1.8010    63.7468   998.6031  0.000e+00
      2.726    18.2344    18.2388     99.350  85.915687      3.878     5.7731     61.293    9.41893    9.40399 3.6621e+02     4.8241     1.7927    63.8786   998.6038  0.000e+00
      2.797    18.2315    18.2359     99.357  85.915689      3.978     5.7443     60.983    9.41949    9.40455 3.0789e+02     3.4016     1.7943    63.8534   998.6047  0.000e+00
      2.861    18.2288    18.2331     99.535  86.064302      4.070     5.7141     60.659    9.42001    9.40507 2.7473e+02     3.7323     1.8033    63.7098   998.6056  0.000e+00
      2.913    18.2265    18.2309     99.609  86.123748      4.144     5.6980     60.485    9.42045    9.40551 3.0541e+02     3.5839     1.7977    63.8001   998.6062  0.000e+00
      2.965    18.2315    18.2359     99.666  86.183192      4.218     5.6789     60.289    9.41948    9.40454 3.1175e+02     3.5246     1.7931    63.8727   998.6056  0.000e+00
      3.014    18.2488    18.2532     99.420  86.004852      4.287     5.6618     60.128    9.41615    9.40120 2.8277e+02     3.4822     1.7900    63.9230   998.6024  0.000e+00
      3.064    18.2602    18.2645     99.394  86.004850      4.358     5.6461     59.975    9.41397    9.39901 2.8840e+02     3.5330     1.8163    63.5040   998.6005  0.000e+00
      3.098    18.2747    18.2791     99.361  86.004846      4.406     5.6176     59.691    9.41117    9.39620 2.5716e+02     3.6306     1.7909    63.9082   998.5979  0.000e+00
      3.164    18.2820    18.2864     99.104  85.796789      4.501     5.6041     59.557    9.40978    9.39480 2.8439e+02     3.8892     1.8046    63.6891   998.5968  0.000e+00
      3.238    18.2664    18.2708     99.071  85.737350      4.606     5.5825     59.308    9.41278    9.39782 2.5863e+02     5.3837     1.7715    64.2191   998.6000  0.000e+00
      3.290    18.2248    18.2292     99.475  86.004861      4.680     5.5992     59.434    9.42077    9.40584 2.6222e+02     5.1251     1.7903    63.9171   998.6082  0.000e+00
      3.337    18.1827    18.1871     99.572  86.004874      4.746     5.6433     59.851    9.42889    9.41398 2.3179e+02     4.8325     1.7986    63.7853   998.6163  0.000e+00
      3.391    18.1762    18.1806     99.415  85.856264      4.824     5.7386     60.854    9.43014    9.41524 2.4051e+02     4.6608     1.7798    64.0859   998.6177  0.000e+00
      3.443    18.1824    18.1867     99.332  85.796819      4.898     5.8687     62.241    9.42896    9.41406 2.1079e+02     4.6015     1.8022    63.7276   998.6168  0.000e+00
      3.493    18.1730    18.1774     99.492  85.915711      4.969     5.9965     63.585    9.43076    9.41587 2.0823e+02     4.5633     1.8009    63.7483   998.6188  0.000e+00
      3.567    18.1607    18.1650     99.176  85.618494      5.074     6.1161     64.836    9.43315    9.41826 2.2831e+02     3.0518     1.7798    64.0859   998.6214  0.000e+00
      3.643    18.1332    18.1375     99.239  85.618503      5.182     6.2027     65.717    9.43846    9.42360 2.1494e+02     3.6793     1.7850    64.0030   998.6269  0.000e+00
      3.704    18.0908    18.0952     99.612  85.856291      5.269     6.2653     66.324    9.44664    9.43181 1.9133e+02     3.6708     1.7777    64.1199   998.6351  0.000e+00
      3.773    18.0474    18.0517     99.506  85.677971      5.366     6.2865     66.489    9.45507    9.44027 1.8250e+02     3.7599     1.7943    63.8534   998.6435  0.000e+00
      3.851    18.0177    18.0220     99.506  85.618537      5.477     6.2852     66.434    9.46083    9.44605 1.6853e+02     3.9273     1.7648    64.3257   998.6493  0.000e+00
      3.925    17.9974    18.0017     99.552  85.618543      5.582     6.2713     66.260    9.46476    9.44999 1.5831e+02     3.9485     1.7971    63.8090   998.6534  0.000e+00
      3.987    17.9817    17.9860     99.865  85.856324      5.670     6.2500     66.014    9.46781    9.45305 1.5676e+02     4.0461     1.7890    63.9378   998.6567  0.000e+00
      4.032    17.9800    17.9843     99.973  85.945491      5.735     6.2229     65.725    9.46813    9.45337 1.5411e+02     4.1690     1.7676    64.2813   998.6573  0.000e+00
      4.066    18.0161    18.0204     99.889  85.945481      5.783     6.1972     65.501    9.46112    9.44634 1.5153e+02     4.3683     1.7705    64.2354   998.6507  0.000e+00
      4.098    18.0789    18.0832     99.640  85.856297      5.829     6.1635     65.229    9.44895    9.43413 1.5306e+02     4.5379     1.7995    63.7705   998.6391  0.000e+00
      4.137    18.1079    18.1123     99.435  85.737401      5.884     6.1429     65.050    9.44334    9.42849 1.5206e+02     4.4022     1.7998    63.7661   998.6338  0.000e+00
      4.189    18.1177    18.1221     99.206  85.559068      5.958     6.1168     64.787    9.44145    9.42660 1.4842e+02     4.3916     1.7726    64.2014   998.6322  0.000e+00
      4.255    18.1183    18.1227     99.032  85.410460      6.052     6.0822     64.421    9.44134    9.42648 1.4429e+02     4.6015     1.7730    64.1940   998.6323  0.000e+00
      4.322    18.0907    18.0951     99.199  85.499633      6.148     6.0544     64.090    9.44667    9.43183 1.3802e+02     4.4891     1.7850    64.0030   998.6378  0.000e+00
      4.385    18.0577    18.0620     99.344  85.559086      6.237     6.0631     64.139    9.45307    9.43825 1.3613e+02     4.4934     1.7849    64.0044   998.6443  0.000e+00
      4.439    18.0234    18.0277     99.699  85.796871      6.313     6.0762     64.232    9.45971    9.44492 1.3403e+02     4.5336     1.7874    63.9645   998.6510  0.000e+00
      4.485    17.9932    17.9976     99.769  85.796880      6.379     6.1030     64.476    9.46557    9.45080 1.3002e+02     4.4170     1.7642    64.3361   998.6568  0.000e+00
      4.540    17.9759    17.9803     99.671  85.677997      6.457     6.1387     64.830    9.46893    9.45418 1.3386e+02     4.3704     1.7705    64.2354   998.6602  0.000e+00
      4.596    17.9662    17.9705     99.556  85.559113      6.537     6.1934     65.394    9.47082    9.45608 1.2377e+02     4.3534     1.7867    63.9748   998.6622  0.000e+00
      4.645    17.9575    17.9618     99.576  85.559116      6.607     6.2609     66.096    9.47253    9.45779 1.1675e+02     4.1499     1.7889    63.9393   998.6641  0.000e+00
      4.682    17.9518    17.9561     99.935  85.856338      6.659     6.3222     66.735    9.47362    9.45888 1.1311e+02     4.3386     1.7808    64.0696   998.6654  0.000e+00
      4.737    17.9441    17.9484     99.607  85.559121      6.738     6.3593     67.116    9.47513    9.46040 1.1460e+02     4.3598     1.7625    64.3628   998.6670  0.000e+00
      4.802    17.9384    17.9427     99.551  85.499679      6.831     6.3722     67.244    9.47623    9.46150 1.1008e+02     4.2792     1.7717    64.2162   998.6683  0.000e+00
      4.868    17.9273    17.9316     99.542  85.469961      6.923     6.3906     67.422    9.47839    9.46367 1.0525e+02     4.3810     1.7770    64.1303   998.6706  0.000e+00
      4.928    17.9056    17.9099     99.523  85.410525      7.010     6.3846     67.329    9.48263    9.46793 1.0241e+02     4.4043     1.7815    64.0577   998.6749  0.000e+00
      4.994    17.8928    17.8971     99.553  85.410529      7.103     6.3792     67.255    9.48511    9.47042 1.0079e+02     4.4552     1.7848    64.0059   998.6775  0.000e+00
      5.058    17.8794    17.8837     99.515  85.351090      7.194     6.3734     67.175    9.48773    9.47305 9.5931e+01     4.2792     1.7840    64.0178   998.6803  0.000e+00
      5.100    17.8678    17.8721     99.853  85.618588      7.254     6.3615     67.034    9.48999    9.47531 9.3241e+01     4.0545     1.7993    63.7735   998.6827  0.000e+00
      5.136    17.8635    17.8678     99.864  85.618590      7.305     6.3716     67.134    9.49083    9.47616 9.2834e+01     4.0355     1.7818    64.0533   998.6837  0.000e+00
      5.189    17.8917    17.8960     99.486  85.351088      7.381     6.3871     67.337    9.48533    9.47064 9.0409e+01     3.9994     1.7728    64.1984   998.6786  0.000e+00
      5.248    17.9093    17.9136     99.307  85.232198      7.464     6.4196     67.704    9.48191    9.46721 8.8048e+01     3.9591     1.7480    64.5967   998.6756  0.000e+00
      5.303    17.9047    17.9090     99.525  85.410528      7.543     6.4459     67.974    9.48280    9.46810 8.6976e+01     3.9210     1.7589    64.4220   998.6767  0.000e+00
      5.356    17.8951    17.8994     99.409  85.291645      7.619     6.4670     68.183    9.48468    9.46998 8.4908e+01     3.8701     1.7779    64.1155   998.6787  0.000e+00
      5.414    17.8856    17.8899     99.431  85.291648      7.701     6.4695     68.197    9.48654    9.47185 8.0812e+01     3.9401     1.7790    64.0992   998.6807  0.000e+00
      5.460    17.8780    17.8822     99.691  85.499701      7.765     6.4754     68.248    9.48802    9.47333 8.0424e+01     3.8256     1.7869    63.9719   998.6824  0.000e+00
      5.510    17.8765    17.8808     99.591  85.410537      7.837     6.4887     68.387    9.48830    9.47362 7.7421e+01     3.8871     1.7938    63.8623   998.6829  0.000e+00
      5.573    17.8728    17.8771     99.322  85.172768      7.926     6.4936     68.433    9.48902    9.47434 7.5779e+01     3.7811     1.8111    63.5869   998.6837  0.000e+00
      5.627    17.8670    17.8712     99.544  85.351098      8.003     6.4943     68.432    9.49016    9.47549 7.3429e+01     3.9888     1.7845    64.0104   998.6851  0.000e+00
      5.682    17.8563    17.8606     99.430  85.232216      8.082     6.4828     68.295    9.49225    9.47758 7.1043e+01     3.9401     1.7746    64.1688   998.6873  0.000e+00
      5.748    17.8458    17.8501     99.246  85.053893      8.175     6.4783     68.233    9.49429    9.47964 6.9537e+01     3.8934     1.7513    64.5434   998.6895  0.000e+00
      5.802    17.8386    17.8429     99.471  85.232222      8.252     6.4539     67.966    9.49571    9.48105 6.8886e+01     3.8955     1.7485    64.5893   998.6911  0.000e+00
      5.853    17.8326    17.8369     99.485  85.232224      8.325     6.4326     67.734    9.49687    9.48222 6.6299e+01     3.9867     1.7563    64.4634   998.6924  0.000e+00
      5.913    17.8257    17.8300     99.292  85.053899      8.410     6.4004     67.385    9.49823    9.48359 6.4201e+01     4.0291     1.7626    64.3613   998.6939  0.000e+00
      5.963    17.8203    17.8245     99.375  85.113343      8.481     6.3619     66.972    9.49929    9.48465 6.4510e+01     3.9676     1.7532    64.5138   998.6952  0.000e+00
      6.012    17.8164    17.8206     99.453  85.172787      8.550     6.3187     66.512    9.50005    9.48541 6.2292e+01     3.9973     1.7710    64.2265   998.6961  0.000e+00
      6.070    17.8140    17.8183     99.215  84.964741      8.634     6.2963     66.273    9.50051    9.48588 6.0123e+01     3.9761     1.7619    64.3731   998.6967  0.000e+00
      6.149    17.8110    17.8153     99.014  84.786418      8.747     6.2740     66.035    9.50111    9.48648 5.8925e+01     3.9040     1.7602    64.3998   998.6976  0.000e+00
      6.218    17.8092    17.8135     99.088  84.845860      8.844     6.2594     65.878    9.50146    9.48683 5.7726e+01     3.9210     1.7623    64.3672   998.6982  0.000e+00
      6.291    17.8144    17.8187     98.868  84.667536      8.947     6.2616     65.908    9.50045    9.48582 5.4630e+01     3.7895     1.7456    64.6352   998.6975  0.000e+00
      6.371    17.8124    17.8167     98.872  84.667537      9.062     6.2538     65.824    9.50084    9.48621 5.2786e+01     3.8150     1.7545    64.4916   998.6983  0.000e+00
      6.438    17.8083    17.8126     98.951  84.726980      9.158     6.2545     65.826    9.50163    9.48700 5.1984e+01     3.7471     1.7549    64.4857   998.6993  0.000e+00
      6.493    17.8036    17.8079     99.101  84.845864      9.235     6.2579     65.854    9.50256    9.48793 5.0196e+01     3.7048     1.7530    64.5167   998.7005  0.000e+00
      6.519    17.7965    17.8008     99.569  85.232239      9.272     6.2491     65.752    9.50393    9.48931 4.9509e+01     3.6390     1.7549    64.4857   998.7021  0.000e+00
      6.544    17.8011    17.8054     99.315  85.024190      9.307     6.2310     65.569    9.50304    9.48842 4.8714e+01     3.6984     1.7563    64.4634   998.7013  0.000e+00
      6.581    17.8165    17.8208     99.210  84.964744      9.360     6.2389     65.672    9.50002    9.48539 4.8005e+01     3.5733     1.7510    64.5493   998.6986  0.000e+00
      6.623    17.8241    17.8283     99.192  84.964743      9.420     6.2574     65.877    9.49855    9.48391 4.6222e+01     3.5648     1.7656    64.3139   998.6974  0.000e+00
      6.695    17.8258    17.8301     98.911  84.726977      9.522     6.2680     65.991    9.49822    9.48358 4.4633e+01     3.6475     1.7490    64.5804   998.6973  0.000e+00
      6.775    17.8191    17.8234     98.787  84.608098      9.637     6.2718     66.023    9.49953    9.48489 4.4273e+01     3.9379     1.7522    64.5286   998.6988  0.000e+00
      6.831    17.8115    17.8158     99.221  84.964748      9.715     6.2548     65.833    9.50100    9.48637 4.3315e+01     3.9231     1.7237    64.9905   998.7006  0.000e+00
      6.876    17.7985    17.8028     99.321  85.024194      9.780     6.2581     65.850    9.50355    9.48893 4.2202e+01     4.0143     1.7516    64.5390   998.7033  0.000e+00
      6.929    17.7888    17.7931     99.066  84.786430      9.856     6.3161     66.447    9.50545    9.49083 4.1289e+01     3.9019     1.7387    64.7477   998.7052  0.000e+00
      7.002    17.7834    17.7877     98.870  84.608109      9.960     6.4327     67.666    9.50652    9.49191 4.0096e+01     3.9761     1.7389    64.7448   998.7064  0.000e+00
      7.091    17.7771    17.7814     98.711  84.459511     10.086     6.5673     69.073    9.50776    9.49315 3.8096e+01     3.8955     1.7368    64.7788   998.7079  0.000e+00
      7.166    17.7733    17.7776     98.824  84.548673     10.193     6.7082     70.549    9.50850    9.49389 3.6947e+01     4.0037     1.7617    64.3761   998.7090  0.000e+00
      7.239    17.7731    17.7774     98.824  84.548674     10.296     6.8489     72.029    9.50853    9.49393 3.6021e+01     3.8044     1.7651    64.3213   998.7094  0.000e+00
      7.318    17.7673    17.7716     98.803  84.518956     10.409     6.9571     73.158    9.50966    9.49506 3.4660e+01     3.8659     1.7395    64.7344   998.7108  0.000e+00
      7.390    17.7631    17.7674     98.812  84.518957     10.511     7.0186     73.799    9.51049    9.49589 3.2945e+01     3.8298     1.7390    64.7433   998.7119  0.000e+00
      7.447    17.7632    17.7675     98.986  84.667559     10.592     7.0187     73.800    9.51047    9.49587 3.2268e+01     3.7832     1.8314    63.2641   998.7122  0.000e+00
      7.488    17.7640    17.7682     99.054  84.727000     10.650     6.9584     73.166    9.51032    9.49572 3.2197e+01     3.9125     1.9525    61.3778   998.7122  0.000e+00
      7.523    17.7613    17.7656     99.129  84.786443     10.700     6.8612     72.141    9.51084    9.49624 3.1459e+01     3.9803     1.8351    63.2064   998.7129  0.000e+00
      7.543    17.7578    17.7620     99.277  84.905327     10.729     6.7638     71.111    9.51153    9.49693 3.1370e+01     4.0757     1.8815    62.4764   998.7137  0.000e+00
      7.570    17.7553    17.7595     99.213  84.845886     10.768     6.6454     69.863    9.51202    9.49743 3.0577e+01     4.2368     1.8243    63.3767   998.7142  0.000e+00
      7.613    17.7610    17.7653     98.991  84.667561     10.828     6.5537     68.907    9.51089    9.49630 3.0067e+01     4.0842     1.7808    64.0696   998.7133  0.000e+00
      7.641    17.7655    17.7698     99.259  84.905325     10.868     6.4626     67.956    9.51001    9.49541 3.0008e+01     4.0863     1.8408    63.1161   998.7127  0.000e+00
      7.666    17.7637    17.7680     99.193  84.845884     10.904     6.4131     67.432    9.51036    9.49577 2.9307e+01     4.0694     1.7552    64.4812   998.7131  0.000e+00
      7.719    17.7650    17.7693     98.912  84.608120     10.979     6.3698     66.979    9.51012    9.49552 2.8535e+01     4.0906     1.7120    65.1815   998.7130  0.000e+00
      7.783    17.7655    17.7698     98.842  84.548680     11.070     6.3577     66.852    9.51002    9.49542 2.7826e+01     4.2920     1.7338    64.8277   998.7132  0.000e+00
      7.856    17.7324    17.7367     98.814  84.459529     11.174     6.3525     66.752    9.51651    9.50193 2.6893e+01     4.1966     1.8739    62.5964   998.7196  0.000e+00
      7.918    17.5144    17.5186     99.391  84.519030     11.262     6.3877     66.821    9.55944    9.54502 2.6127e+01     4.2411     1.8397    63.1338   998.7595  0.000e+00
      7.968    17.2407    17.2448    100.140  84.608266     11.333     6.4719     67.318    9.61383    9.59961 2.5523e+01     4.2729     1.8479    63.0035   998.8087  0.000e+00
      8.042    17.0432    17.0473     99.480  83.657290     11.438     6.5681     68.039    9.65345    9.63936 2.4414e+01     4.4510     1.8831    62.4513   998.8434  0.000e+00
      8.116    16.7136    16.7176     99.340  82.884699     11.543     6.7022     68.951    9.72022    9.70636 2.3595e+01     4.5993     1.9682    61.1365   998.9006  0.000e+00
      8.155    16.4112    16.4151    101.609  84.162693     11.599     6.8203     69.722    9.78215    9.76849 2.2989e+01     4.5781     1.8789    62.5179   998.9526  0.000e+00
      8.191    16.1249    16.1287    101.666  83.627822     11.650     6.9265     70.380    9.84150    9.82803 2.2541e+01     4.8792     1.8888    62.3624   999.0002  0.000e+00
      8.249    15.9823    15.9862    100.642  82.498567     11.733     7.0024     70.937    9.87131    9.85793 2.1709e+01     5.0276     1.9286    61.7450   999.0234  0.000e+00
      8.308    15.8953    15.8991    100.457  82.171702     11.817     7.0747     71.537    9.88958    9.87626 2.1072e+01     5.1548     2.0508    59.8883   999.0376  0.000e+00
      8.360    15.7989    15.8027    100.694  82.171728     11.891     7.1535     72.186    9.90987    9.89661 2.0135e+01     5.0827     2.1058    59.0695   999.0534  0.000e+00
      8.422    15.5460    15.5497     99.380  80.596857     11.979     7.2596     72.862    9.96354    9.95043 1.9160e+01     5.0636     1.9887    60.8241   999.0934  0.000e+00
      8.486    15.1464    15.1500     99.889  80.210675     12.070     7.3793     73.431   10.04934   10.03647 1.8643e+01     5.7123     2.0188    60.3680   999.1558  0.000e+00
      8.537    14.9229    14.9265    100.746  80.448448     12.143     7.4394     73.673   10.09787   10.08514 1.7861e+01     6.0409     2.1082    59.0340   999.1901  0.000e+00
      8.587    14.7344    14.7380    100.364  79.765075     12.214     7.4827     73.800   10.13918   10.12655 1.7051e+01     6.2084     2.2241    57.3490   999.2183  0.000e+00
      8.650    14.4665    14.4700     99.841  78.814334     12.304     7.5089     73.628   10.19841   10.18593 1.5996e+01     7.1453     2.4953    53.5897   999.2575  0.000e+00
      8.709    14.2139    14.2173     96.999  76.081066     12.387     7.4960     73.097   10.25489   10.24254 1.5480e+01    11.4085     2.6923    51.0134   999.2929  0.000e+00
      8.762    13.8822    13.8855     95.612  74.358148     12.463     7.4199     71.830   10.32985   10.31767 1.4570e+01    14.5014     2.7416    50.3886   999.3390  0.000e+00
      8.812    13.1020    13.1051     97.063  73.972167     12.534     7.3786     70.206   10.50994   10.49812 1.3626e+01    17.6749     2.8135    49.4913   999.4433  0.000e+00
      8.876    12.3932    12.3962     99.142  74.150570     12.625     7.3662     68.982   10.67843   10.66687 1.2306e+01    19.7609     2.9292    48.0803   999.5320  0.000e+00
      8.931    11.9753    11.9781    100.263  74.150671     12.702     7.2696     67.436   10.78007   10.76864 1.1710e+01    21.5755     2.9915    47.3370   999.5813  0.000e+00
      8.986    11.7399    11.7427    100.825  74.091317     12.781     6.9647     64.261   10.83807   10.82671 1.0515e+01    23.4495     3.2673    44.1833   999.6082  0.000e+00
      9.035    11.5910    11.5937    101.154  74.031942     12.851     6.2772     57.721   10.87505   10.86373 9.8106e+00    25.2323     3.4213    42.5146   999.6249  0.000e+00
      9.083    11.4888    11.4916    101.193  73.853736     12.918     5.3164     48.772   10.90055   10.88925 9.3537e+00    26.7926     3.6542    40.1101   999.6362  0.000e+00
      9.124    11.4141    11.4168    101.115  73.645819     12.977     4.2196     38.644   10.91928   10.90800 8.9357e+00    28.3804     3.8972    37.7455   999.6444  0.000e+00
      9.166    11.3522    11.3549    101.206  73.586425     13.037     3.0805     28.171   10.93484   10.92358 8.2554e+00    30.2416     4.0403    36.4189   999.6512  0.000e+00
      9.209    11.2987    11.3014    101.191  73.467619     13.098     1.9714     18.007   10.94831   10.93705 7.8110e+00    32.5926     4.0990    35.8888   999.6571  0.000e+00
      9.252    11.2542    11.2569    101.111  73.319108     13.160     0.9595      8.755   10.95955   10.94831 7.3373e+00    33.6865     4.1819    35.1529   999.6619  0.000e+00
      9.298    11.2110    11.2137    101.067  73.200302     13.224     0.1557      1.420   10.97046   10.95923 6.8099e+00    34.7591     4.2938    34.1831   999.6666  0.000e+00
      9.340    11.1667    11.1693    101.109  73.140904     13.285    -0.3681     -3.352   10.98169   10.97047 6.1688e+00    35.6156     4.3859    33.4043   999.6714  0.000e+00
      9.387    11.1274    11.1300    101.137  73.081506     13.351    -0.6310     -5.741   10.99166   10.98044 5.6631e+00    36.3321     4.4830    32.6033   999.6757  0.000e+00
      9.430    11.0923    11.0950    100.947  72.873587     13.413    -0.7435     -6.759   11.00057   10.98936 5.1898e+00    35.5816     4.4467    32.9009   999.6794  0.000e+00
      9.485    11.0586    11.0612    100.794  72.695374     13.490    -0.7599     -6.903   11.00916   10.99796 4.7322e+00    34.7761     4.4355    32.9927   999.6831  0.000e+00
      9.539    11.0206    11.0232    100.653  72.517164     13.567    -0.7162     -6.500   11.01885   11.00765 4.2373e+00    34.0108     4.4091    33.2118   999.6872  0.000e+00
      9.592    10.9818    10.9844    100.556  72.368658     13.643    -0.6428     -5.829   11.02876   11.01757 3.8309e+00    32.4866     4.3637    33.5909   999.6913  0.000e+00
      9.651    10.9460    10.9486    100.573  72.309261     13.727    -0.5343     -4.840   11.03790   11.02672 3.5138e+00    31.1511     4.3158    33.9951   999.6952  0.000e+00
      9.704    10.9087    10.9113    100.429  72.131053     13.802    -0.4303     -3.895   11.04746   11.03628 3.2484e+00    29.3280     4.2319    34.7161   999.6991  0.000e+00
      9.753    10.8696    10.8722    100.539  72.131063     13.872    -0.3257     -2.946   11.05748   11.04631 3.0024e+00    27.2462     4.0205    36.5995   999.7033  0.000e+00
      9.806    10.8338    10.8364    100.556  72.071666     13.948    -0.2309     -2.086   11.06667   11.05550 2.8166e+00    25.0458     3.9885    36.8941   999.7071  0.000e+00
      9.872    10.8024    10.8050    100.603  72.041972     14.042    -0.1483     -1.339   11.07474   11.06358 2.5576e+00    22.8453     3.9112    37.6137   999.7106  0.000e+00
      9.941    10.7664    10.7690    100.538  71.923171     14.139    -0.0754     -0.681   11.08401   11.07285 2.4062e+00    20.2145     3.8039    38.6368   999.7144  0.000e+00
      9.992    10.7188    10.7214    100.672  71.923182     14.212    -0.0179     -0.161   11.09629   11.08514 2.3092e+00    18.2939    55.2620    -1.1062   999.7194  0.000e+00
     10.045    10.6729    10.6755    100.636  71.804384     14.288     0.0412      0.371   11.10816   11.09701 2.1711e+00    16.6043    55.2620    -1.1062   999.7241  0.000e+00
     10.089    10.6281    10.6306    100.929  71.923204     14.349     0.0668      0.600   11.11975   11.10861 2.1437e+00    15.2285    55.2620    -1.1062   999.7287  0.000e+00
     10.121    10.5854    10.5880    101.133  71.982619     14.396     0.1082      0.972   11.13081   11.11968 2.0900e+00    13.9121    55.2620    -1.1062   999.7330  0.000e+00
     10.150    10.5567    10.5592    101.215  71.982626     14.437     0.1338      1.201   11.13828   11.12716 2.0155e+00    12.8712    55.2620    -1.1062   999.7360  0.000e+00
     10.194    10.5336    10.5361    101.741  72.309361     14.499     0.1579      1.417   11.14426   11.13314 1.9513e+00    12.2670     3.4618    42.0867   999.7386  0.000e+00
     10.243    10.5030    10.5056    102.205  72.576697     14.569     0.1912      1.715   11.15220   11.14108 1.9053e+00    11.6819     3.3855    42.8966   999.7419  0.000e+00
     10.297    10.4689    10.4714    102.722  72.873741     14.646     0.1994      1.787   11.16109   11.14997 1.7384e+00    11.4042     3.4036    42.7026   999.7455  0.000e+00
     10.340    10.4383    10.4408    102.936  72.962860     14.706     0.2156      1.930   11.16906   11.15795 1.7312e+00    11.1562    55.2620    -1.1062   999.7487  0.000e+00
     10.388    10.4121    10.4146    103.096  73.022274     14.776     0.2226      1.992   11.17593   11.16481 1.5998e+00    10.7577    55.2620    -1.1062   999.7514  0.000e+00
     10.451    10.3894    10.3919    103.330  73.141096     14.865     0.2301      2.057   11.18183   11.17072 1.5310e+00    10.0920    55.2620    -1.1062   999.7539  0.000e+00
     10.509    10.3629    10.3654    103.744  73.378738     14.947     0.2414      2.158   11.18878   11.17767 1.4366e+00     9.2822    55.2620    -1.1062   999.7568  0.000e+00
     10.556    10.3312    10.3337    103.963  73.467860     15.014     0.2449      2.187   11.19708   11.18598 1.3978e+00     8.8243    55.2620    -1.1062   999.7600  0.000e+00
     10.604    10.3007    10.3032    104.305  73.646096     15.082     0.2487      2.220   11.20506   11.19396 1.3036e+00     8.1417    55.2620    -1.1062   999.7632  0.000e+00
     10.650    10.2713    10.2737    104.561  73.764923     15.148     0.2509      2.238   11.21280   11.20170 1.2704e+00     7.8640    55.2620    -1.1062   999.7662  0.000e+00
     10.707    10.2434    10.2458    104.854  73.913457     15.229     0.2498      2.226   11.22013   11.20904 1.1478e+00     7.1899    55.2620    -1.1062   999.7692  0.000e+00
     10.770    10.2191    10.2215    105.180  74.091696     15.318     0.2435      2.169   11.22652   11.21543 1.0984e+00     6.7447     3.1345    45.6743   999.7718  0.000e+00
     10.823    10.1970    10.1995    105.246  74.091701     15.394     0.2407      2.143   11.23234   11.22125 1.0194e+00     6.4331     3.2081    44.8421   999.7741  0.000e+00
     10.864    10.1768    10.1792    105.475  74.210529     15.453     0.2365      2.104   11.23767   11.22658 9.7709e-01     6.0684     3.1371    45.6447   999.7762  0.000e+00
     10.898    10.1604    10.1628    105.609  74.269945     15.500     0.2273      2.022   11.24200   11.23091 9.4535e-01     5.9412     3.1095    45.9615   999.7779  0.000e+00
     10.942    10.1480    10.1505    105.773  74.359066     15.564     0.2365      2.103   11.24526   11.23417 8.6937e-01     5.6678     3.0865    46.2265   999.7792  0.000e+00
     11.001    10.1397    10.1421    105.882  74.418480     15.647     0.2289      2.035   11.24746   11.23637 8.1149e-01     5.3413     3.0692    46.4264   999.7803  0.000e+00
     11.055    10.1314    10.1339    105.992  74.477895     15.725     0.2352      2.091   11.24964   11.23855 7.4448e-01     5.0975     3.0839    46.2561   999.7813  0.000e+00
     11.108    10.1218    10.1242    105.936  74.418486     15.799     0.2308      2.051   11.25220   11.24111 7.3124e-01     4.9152     3.0843    46.2517   999.7824  0.000e+00
     11.161    10.1130    10.1154    106.132  74.537313     15.874     0.2352      2.090   11.25452   11.24343 6.7839e-01     4.7541     3.1345    45.6743   999.7835  0.000e+00
     11.222    10.1058    10.1082    106.069  74.477902     15.961     0.2414      2.145   11.25642   11.24533 6.0957e-01     4.6841     3.1309    45.7157   999.7844  0.000e+00
     11.296    10.0993    10.1017    106.258  74.596730     16.066     0.2331      2.071   11.25813   11.24705 5.2544e-01     4.5485     3.1929    45.0124   999.7854  0.000e+00
     11.362    10.0919    10.0943    106.280  74.596732     16.160     0.2317      2.058   11.26011   11.24902 5.0449e-01     4.5146     3.2272    44.6289   999.7864  0.000e+00
     11.417    10.0842    10.0866    106.388  74.656147     16.239     0.2230      1.980   11.26214   11.25106 4.9217e-01     4.4743     3.2759    44.0885   999.7874  0.000e+00
     11.469    10.0777    10.0801    106.493  74.715562     16.313     0.2238      1.987   11.26386   11.25278 4.6242e-01     4.3556     3.3050    43.7687   999.7883  0.000e+00
     11.517    10.0731    10.0755    106.422  74.656150     16.381     0.2155      1.913   11.26509   11.25401 4.5410e-01     4.3004     3.2966    43.8605   999.7889  0.000e+00
     11.565    10.0681    10.0705    106.522  74.715565     16.449     0.2151      1.909   11.26640   11.25532 4.2027e-01     4.3386     3.3330    43.4637   999.7896  0.000e+00
     11.598    10.0625    10.0649    106.539  74.715566     16.496     0.2101      1.864   11.26789   11.25681 3.6513e-01     4.2771     3.3275    43.5229   999.7902  0.000e+00
     11.624    10.0594    10.0618    106.548  74.715567     16.533     0.2058      1.826   11.26871   11.25763 3.7731e-01     4.3577     3.3450    43.3334   999.7906  0.000e+00
     11.645    10.0579    10.0603    106.595  74.745274     16.564     0.1935      1.717   11.26912   11.25804 3.6131e-01     4.1690     3.3794    42.9618   999.7909  0.000e+00
     11.674    10.0562    10.0587    106.600  74.745275     16.604     0.1952      1.732   11.26954   11.25846 3.6052e-01     4.1415     3.3654    43.1128   999.7912  0.000e+00
     11.721    10.0540    10.0564    106.565  74.715569     16.672     0.1900      1.686   11.27013   11.25905 3.1798e-01     4.0948     3.3499    43.2801   999.7916  0.000e+00
     11.774    10.0523    10.0547    106.697  74.804690     16.746     0.1826      1.620   11.27059   11.25951 3.4351e-01     3.9528     3.3621    43.1483   999.7920  0.000e+00
     11.824    10.0493    10.0518    106.706  74.804691     16.817     0.1814      1.610   11.27137   11.26029 3.2374e-01     3.9040     3.3690    43.0743   999.7925  0.000e+00
     11.867    10.0456    10.0480    106.717  74.804692     16.879     0.1785      1.584   11.27237   11.26128 3.1487e-01     3.8892     3.3775    42.9825   999.7931  0.000e+00
     11.910    10.0406    10.0431    106.902  74.923521     16.941     0.1758      1.559   11.27367   11.26259 3.0318e-01     3.9761     3.3587    43.1853   999.7938  0.000e+00
     11.934    10.0344    10.0368    106.836  74.864109     16.975     0.1719      1.525   11.27535   11.26427 2.5495e-01     3.9422     3.3572    43.2016   999.7944  0.000e+00
     11.970    10.0299    10.0323    106.765  74.804697     17.026     0.1753      1.554   11.27654   11.26546 2.3600e-01     3.8256     3.3676    43.0891   999.7950  0.000e+00
     12.009    10.0273    10.0297    106.943  74.923525     17.081     0.1739      1.542   11.27721   11.26613 2.5534e-01     3.7747     3.3821    42.9336   999.7954  0.000e+00
     12.049    10.0246    10.0270    106.951  74.923526     17.138     0.1757      1.558   11.27794   11.26686 2.4202e-01     3.7429     3.3737    43.0239   999.7959  0.000e+00
     12.092    10.0212    10.0236    107.046  74.982940     17.199     0.1680      1.489   11.27884   11.26776 2.0907e-01     3.9846     3.4027    42.7130   999.7964  0.000e+00
     12.158    10.0185    10.0209    107.224  75.101770     17.293     0.1672      1.483   11.27955   11.26847 1.9511e-01     3.9676     3.3745    43.0151   999.7970  0.000e+00
     12.211    10.0158    10.0182    107.148  75.042357     17.369     0.1625      1.440   11.28028   11.26920 1.7990e-01     4.0121     3.3811    42.9440   999.7975  0.000e+00
     12.265    10.0116    10.0140    107.245  75.101772     17.444     0.1577      1.397   11.28139   11.27031 1.5490e-01     4.0185     3.3611    43.1587   999.7981  0.000e+00
     12.325    10.0068    10.0092    107.345  75.161188     17.531     0.1610      1.427   11.28265   11.27157 1.7628e-01     3.9061     3.3371    43.4193   999.7989  0.000e+00
     12.387    10.0014    10.0038    107.404  75.190897     17.619     0.1535      1.360   11.28409   11.27301 1.6186e-01     3.8998     3.3468    43.3141   999.7997  0.000e+00
     12.446     9.9968     9.9992    107.503  75.250313     17.702     0.1459      1.293   11.28531   11.27423 1.5258e-01     3.9485     3.3198    43.6073   999.8004  0.000e+00
     12.504     9.9924     9.9948    107.601  75.309729     17.784     0.1511      1.339   11.28648   11.27541 1.4109e-01     3.9252     3.3277    43.5214   999.8011  0.000e+00
     12.567     9.9887     9.9911    107.698  75.369145     17.874     0.1527      1.352   11.28746   11.27638 1.2512e-01     3.8807     3.3217    43.5866   999.8017  0.000e+00
     12.624     9.9861     9.9885    107.706  75.369147     17.956     0.1535      1.360   11.28815   11.27707 1.2379e-01     3.8722     3.3252    43.5481   999.8022  0.000e+00
     12.678     9.9848     9.9872    107.795  75.428562     18.033     0.1511      1.338   11.28851   11.27743 1.1449e-01     3.7260     3.3232    43.5703   999.8026  0.000e+00
     12.722     9.9825     9.9849    107.717  75.369148     18.095     0.1513      1.340   11.28911   11.27803 1.3475e-01     3.7514     3.3300    43.4963   999.8030  0.000e+00
     12.758     9.9801     9.9825    107.809  75.428564     18.146     0.1494      1.323   11.28975   11.27867 1.1270e-01     3.6751     3.3095    43.7198   999.8034  0.000e+00
     12.801     9.9778     9.9802    107.816  75.428565     18.208     0.1435      1.271   11.29035   11.27927 1.1300e-01     3.5754     3.2819    44.0219   999.8038  0.000e+00
     12.850     9.9762     9.9786    107.906  75.487981     18.277     0.1545      1.368   11.29078   11.27970 1.1444e-01     3.6306     3.2827    44.0130   999.8042  0.000e+00
     12.901     9.9750     9.9774    107.910  75.487982     18.350     0.1421      1.259   11.29110   11.28002 1.1282e-01     3.5267     3.2928    43.9020   999.8046  0.000e+00
     12.949     9.9737     9.9761    107.999  75.547398     18.418     0.1429      1.265   11.29145   11.28037 1.1272e-01     3.5585     3.3303    43.4933   999.8050  0.000e+00
     12.998     9.9723     9.9747    107.918  75.487983     18.487     0.1446      1.281   11.29181   11.28073 1.1290e-01     3.5267     3.3498    43.2816   999.8053  0.000e+00
     13.041     9.9713     9.9737    107.921  75.487983     18.549     0.1394      1.235   11.29209   11.28101 1.1275e-01     3.4504     3.3343    43.4489   999.8056  0.000e+00
     13.083     9.9705     9.9729    108.009  75.547399     18.608     0.1340      1.186   11.29230   11.28122 1.1258e-01     3.3910     3.3719    43.0432   999.8059  0.000e+00
     13.130     9.9700     9.9724    107.925  75.487984     18.676     0.1321      1.170   11.29243   11.28135 1.1272e-01     3.3804     3.2992    43.8324   999.8061  0.000e+00
     13.176     9.9693     9.9717    107.927  75.487985     18.741     0.1351      1.196   11.29261   11.28153 1.1285e-01     3.5352     3.2701    44.1522   999.8064  0.000e+00
     13.221     9.9685     9.9709    107.930  75.487985     18.804     0.1284      1.137   11.29282   11.28174 1.1282e-01     3.4779     3.3001    43.8220   999.8067  0.000e+00
     13.275     9.9679     9.9703    108.102  75.606817     18.881     0.1305      1.156   11.29299   11.28192 1.1267e-01     3.6496     3.2803    44.0396   999.8070  0.000e+00
     13.334     9.9671     9.9695    108.232  75.695941     18.965     0.1239      1.097   11.29320   11.28212 1.1285e-01     3.9167     3.2729    44.1211   999.8074  0.000e+00
     13.377     9.9663     9.9687    108.234  75.695942     19.027     0.1302      1.153   11.29340   11.28232 1.1290e-01     3.9485     3.2637    44.2232   999.8077  0.000e+00
     13.417     9.9656     9.9680    108.151  75.636526     19.084     0.1350      1.195   11.29360   11.28252 1.1285e-01     3.6772     3.2657    44.2010   999.8079  0.000e+00
     13.460     9.9642     9.9666    108.155  75.636527     19.144     0.1339      1.185   11.29397   11.28289 1.1272e-01     3.5839     3.2365    44.5253   999.8082  0.000e+00
     13.494     9.9632     9.9656    108.244  75.695943     19.193     0.1348      1.193   11.29423   11.28316 1.1282e-01     3.4673     3.2311    44.5845   999.8085  0.000e+00
     13.529     9.9625     9.9649    108.161  75.636528     19.243     0.1246      1.103   11.29441   11.28334 1.1275e-01     3.7323     3.2303    44.5934   999.8087  0.000e+00
     13.571     9.9616     9.9640    108.164  75.636529     19.303     0.1248      1.105   11.29466   11.28359 1.1287e-01     3.6942     3.2187    44.7237   999.8090  0.000e+00
     13.614     9.9603     9.9626    108.168  75.636529     19.363     0.1301      1.152   11.29502   11.28394 1.1275e-01     3.6814     3.2404    44.4809   999.8093  0.000e+00
     13.644     9.9596     9.9620    108.127  75.606822     19.407     0.1227      1.086   11.29520   11.28412 1.1270e-01     3.5182     3.2684    44.1714   999.8095  0.000e+00
     13.677     9.9590     9.9614    108.342  75.755362     19.453     0.1221      1.081   11.29535   11.28427 1.1292e-01     3.5246     3.3060    43.7583   999.8098  0.000e+00
     13.721     9.9581     9.9604    108.429  75.814779     19.516     0.1216      1.076   11.29560   11.28452 1.1270e-01     3.5012     3.2697    44.1566   999.8101  0.000e+00
     13.789     9.9570     9.9594    108.348  75.755363     19.612     0.1163      1.029   11.29587   11.28479 1.1280e-01     3.4991     3.2508    44.3654   999.8105  0.000e+00
     13.846     9.9566     9.9590    108.264  75.695948     19.694     0.1137      1.006   11.29599   11.28492 1.1275e-01     3.6793     3.2293    44.6052   999.8108  0.000e+00
     13.894     9.9557     9.9581    108.352  75.755364     19.762     0.1223      1.083   11.29622   11.28514 1.1285e-01     3.6072    55.2620    -1.1062   999.8111  0.000e+00
     13.954     9.9547     9.9571    108.355  75.755365     19.847     0.1194      1.057   11.29649   11.28541 1.1285e-01     3.5924    55.2620    -1.1062   999.8115  0.000e+00
     14.008     9.9531     9.9555    108.360  75.755366     19.924     0.1225      1.085   11.29692   11.28584 1.1270e-01     3.7556    55.2620    -1.1062   999.8119  0.000e+00
     14.047     9.9524     9.9548    108.447  75.814782     19.980     0.1221      1.081   11.29711   11.28603 1.1295e-01     3.7662    55.2620    -1.1062   999.8121  0.000e+00
     14.078     9.9517     9.9541    108.279  75.695950     20.023     0.1253      1.109   11.29729   11.28621 1.1290e-01     3.5860    55.2620    -1.1062   999.8123  0.000e+00
     14.110     9.9506     9.9530    108.367  75.755367     20.070     0.1210      1.071   11.29757   11.28650 1.1280e-01     3.6051    55.2620    -1.1062   999.8125  0.000e+00
     14.151     9.9493     9.9517    108.542  75.874200     20.127     0.1167      1.033   11.29792   11.28685 1.1285e-01     3.6221    55.2620    -1.1062   999.8129  0.000e+00
     14.209     9.9482     9.9506    108.630  75.933618     20.210     0.1239      1.096   11.29822   11.28715 1.1287e-01     3.6030    55.2620    -1.1062   999.8133  0.000e+00
     14.258     9.9476     9.9500    108.844  76.082160     20.280     0.1205      1.067   11.29838   11.28730 1.1258e-01     3.6666    55.2620    -1.1062   999.8137  0.000e+00
     14.315     9.9469     9.9493    108.719  75.993035     20.360     0.1051      0.930   11.29856   11.28748 1.1272e-01     3.6369    55.2620    -1.1062   999.8140  0.000e+00
     14.388     9.9452     9.9476    108.809  76.052453     20.465     0.1078      0.954   11.29900   11.28792 1.1282e-01     3.6836    55.2620    -1.1062   999.8145  0.000e+00
     14.444     9.9444     9.9468    108.472  75.814787     20.544     0.1075      0.952   11.29924   11.28816 1.1290e-01     3.7599    55.2620    -1.1062   999.8147  0.000e+00
     14.469     9.9439     9.9463    108.558  75.874204     20.580     0.1012      0.896   11.29936   11.28829 1.1270e-01     3.6772    55.2620    -1.1062   999.8149  0.000e+00
     14.476     9.9441     9.9465    108.728  75.993037     20.590     0.1179      1.043   11.29930   11.28823 1.1302e-01     3.7048    55.2620    -1.1062   999.8150  0.000e+00
     14.479     9.9464     9.9488    108.720  75.993037     20.593     0.1119      0.990   11.29868   11.28760 1.1272e-01     3.6348    55.2620    -1.1062   999.8148  0.000e+00
     14.479     9.9492     9.9516    108.712  75.993036     20.593     0.1140      1.009   11.29795   11.28688 1.1277e-01     3.7196    55.2620    -1.1062   999.8145  0.000e+00
     14.468     9.9535     9.9559    108.826  76.082160     20.578     0.1146      1.015   11.29679   11.28572 1.1272e-01     3.6348    55.2620    -1.1062   999.8141  0.000e+00
     14.469     9.9562     9.9586    108.775  76.052451     20.580     0.1275      1.129   11.29608   11.28501 1.1277e-01     3.5585    55.2620    -1.1062   999.8139  0.000e+00
     14.485     9.9586     9.9610    108.768  76.052451     20.603     0.1188      1.052   11.29544   11.28437 1.1300e-01     3.5373    55.2620    -1.1062   999.8138  0.000e+00
     14.516     9.9601     9.9624    108.678  75.993034     20.646     0.1188      1.052   11.29506   11.28398 1.1282e-01     3.5055     3.1811    45.1457   999.8137  0.000e+00
     14.544     9.9580     9.9604    108.430  75.814785     20.686     0.1108      0.981   11.29561   11.28454 1.1282e-01     3.5521    55.2620    -1.1062   999.8140  0.000e+00
     14.582     9.9528     9.9552    108.361  75.755370     20.740     0.1145      1.014   11.29700   11.28593 1.1277e-01     3.6327     3.1941    44.9991   999.8146  0.000e+00
     14.622     9.9469     9.9493    108.379  75.755372     20.797     0.1128      0.999   11.29857   11.28749 1.1270e-01     3.6242     3.1659    45.3174   999.8153  0.000e+00
     14.670     9.9428     9.9452    108.477  75.814789     20.865     0.1151      1.019   11.29965   11.28857 1.1270e-01     3.6496    55.2620    -1.1062   999.8159  0.000e+00
     14.718     9.9411     9.9435    108.397  75.755374     20.933     0.1057      0.935   11.30012   11.28904 1.1267e-01     3.6666     3.1569    45.4196   999.8162  0.000e+00
     14.764     9.9406     9.9430    108.484  75.814790     21.000     0.1018      0.901   11.30026   11.28918 1.1272e-01     3.5606     3.1681    45.2923   999.8165  0.000e+00
     14.800     9.9398     9.9422    108.401  75.755375     21.051     0.1161      1.028   11.30045   11.28938 1.1282e-01     3.4504     3.1700    45.2715   999.8167  0.000e+00
     14.843     9.9386     9.9410    108.405  75.755375     21.111     0.1104      0.977   11.30079   11.28971 1.1272e-01     3.5097     3.1670    45.3056   999.8170  0.000e+00
     14.899     9.9376     9.9400    108.578  75.874209     21.191     0.1218      1.078   11.30105   11.28998 1.1277e-01     3.7408     3.1887    45.0598   999.8175  0.000e+00
     14.945     9.9366     9.9390    108.581  75.874209     21.256     0.1114      0.986   11.30132   11.29024 1.1295e-01     4.0185     3.1681    45.2923   999.8178  0.000e+00
     14.977     9.9352     9.9376    108.585  75.874210     21.303     0.1025      0.907   11.30167   11.29060 1.1275e-01     3.8955     3.1845    45.1072   999.8180  0.000e+00
     15.013     9.9338     9.9362    108.675  75.933627     21.354     0.1023      0.905   11.30205   11.29097 1.1300e-01     3.8298     3.1629    45.3515   999.8184  0.000e+00
     15.071     9.9322     9.9345    108.892  76.082170     21.436     0.0998      0.883   11.30248   11.29141 1.1290e-01     3.6942     3.1970    44.9665   999.8189  0.000e+00
     15.127     9.9306     9.9329    108.897  76.082171     21.516     0.1004      0.888   11.30291   11.29183 1.1290e-01     3.7620     3.1647    45.3308   999.8193  0.000e+00
     15.160     9.9286     9.9310    109.074  76.201006     21.562     0.0960      0.849   11.30342   11.29234 1.1263e-01     3.8934     3.1438    45.5691   999.8196  0.000e+00
     15.180     9.9268     9.9291    109.079  76.201007     21.592     0.0983      0.870   11.30392   11.29284 1.1282e-01     3.8213    55.2620    -1.1062   999.8199  0.000e+00
     15.222     9.9256     9.9279    109.168  76.260425     21.650     0.1003      0.887   11.30424   11.29316 1.1277e-01     3.5988     3.1279    45.7498   999.8202  0.000e+00
     15.285     9.9250     9.9273    109.255  76.319843     21.740     0.1075      0.951   11.30439   11.29332 1.1287e-01     3.5436     3.1464    45.5395   999.8206  0.000e+00
     15.312     9.9247     9.9271    109.171  76.260426     21.779     0.1072      0.949   11.30447   11.29339 1.1275e-01     3.4673    55.2620    -1.1062   999.8207  0.000e+00
     15.326     9.9238     9.9262    109.259  76.319844     21.799     0.1100      0.973   11.30469   11.29362 1.1265e-01     3.3465     3.1382    45.6328   999.8209  0.000e+00
     15.349     9.9237     9.9261    109.174  76.260426     21.831     0.1045      0.924   11.30473   11.29366 1.1295e-01     3.4270     3.1425    45.5839   999.8210  0.000e+00
     15.388     9.9240     9.9264    109.258  76.319844     21.887     0.1073      0.949   11.30464   11.29356 1.1280e-01     3.3592    55.2620    -1.1062   999.8212  0.000e+00
     15.453     9.9234     9.9257    109.345  76.379263     21.980     0.1006      0.890   11.30482   11.29374 1.1280e-01     3.3804     3.1500    45.4981   999.8216  0.000e+00
     15.530     9.9223     9.9247    109.434  76.438682     22.089     0.1032      0.913   11.30510   11.29402 1.1280e-01     3.3783    55.2620    -1.1062   999.8221  0.000e+00
     15.613     9.9206     9.9230    109.822  76.706066     22.207     0.0965      0.854   11.30553   11.29445 1.1292e-01     3.4525    55.2620    -1.1062   999.8227  0.000e+00
     15.688     9.9192     9.9215    109.741  76.646648     22.313     0.0961      0.850   11.30592   11.29485 1.1290e-01     3.5097    55.2620    -1.1062   999.8232  0.000e+00
     15.750     9.9186     9.9210    109.913  76.765487     22.401     0.1028      0.909   11.30606   11.29498 1.1282e-01     3.6115     3.0808    46.2917   999.8236  0.000e+00
     15.804     9.9180     9.9203    109.745  76.646649     22.479     0.1012      0.895   11.30624   11.29517 1.1272e-01     3.5754     3.0866    46.2251   999.8238  0.000e+00
     15.856     9.9172     9.9195    109.918  76.765488     22.553     0.1029      0.910   11.30645   11.29538 1.1280e-01     3.5055     3.0893    46.1940   999.8242  0.000e+00
     15.907     9.9165     9.9189    110.473  77.151717     22.625     0.1029      0.910   11.30661   11.29554 1.1267e-01     3.6072    55.2620    -1.1062   999.8247  0.000e+00
     15.955     9.9160     9.9183    112.559  78.607567     22.693     0.0995      0.880   11.30669   11.29561 1.1290e-01     3.5012    55.2620    -1.1062   999.8257  0.000e+00
     16.008     9.9154     9.9177    126.775  88.533917     22.769     0.0960      0.849   11.30638   11.29530 1.1285e-01     3.3974    55.2620    -1.1062   999.8312  0.000e+00
     16.051     9.9154     9.9178    185.364 129.449866     22.829     0.1001      0.885   11.30440   11.29334 1.1282e-01     3.3825    55.2620    -1.1062   999.8528  0.000e+00
     16.068     9.9172     9.9195    215.140 150.251991     22.854     0.0926      0.819   11.30293   11.29187 1.1297e-01     3.3783    55.2620    -1.1062   999.8637  0.000e+00
     16.072     9.9212     9.9236    223.825 156.335725     22.860     0.0930      0.823   11.30155   11.29049 1.1282e-01     3.2405    55.2620    -1.1062   999.8666  0.000e+00
