* Sea-Bird SBE19plus Data File:
* FileName = C:\Users\instrument\Desktop\Iola Rosa. CTD Casts\February 2024\Feb144.hex
* Software Version 1.59
* Temperature SN =  4268
* Conductivity SN =  4268
* System UpLoad Time = Feb 26 2024 14:00:28
* ds
* SeacatPlus V 1.6  SERIAL NO. 4268    26 Feb 2024  13:53:56
* vbatt = 12.7, vlith =  7.9, ioper =  61.6 ma, ipump =  85.0 ma,
* iext01 =  39.7 ma
* iext23 =  52.7 ma
*
* status = not logging
* number of scans to average = 1
* samples = 213406, free = 227668, casts = 152
* mode = profile, minimum cond freq = 2567, pump delay = 60 sec
* autorun = no, ignore magnetic switch = no
* battery type = alkaline, battery cutoff =  7.3 volts
* pressure sensor = strain gauge, range = 508.0
* SBE 38 = no, Gas Tension Device = no
* Ext Volt 0 = yes, Ext Volt 1 = yes, Ext Volt 2 = yes, Ext Volt 3 = yes
* echo commands = yes
* output format = raw HEX

* S>
*
* SeacatPlus V 1.6  SERIAL NO. 4268    26 Feb 2024  13:55:03
* temperature:  06-dec-05
*     TA0 = 1.161749e-03
*     TA1 = 2.891779e-04
*     TA2 = -3.393560e-06
*     TA3 = 2.889319e-07
*     TOFFSET = 0.000000e+00
* conductivity:  06-dec-05
*     G = -9.977815e-01
*     H = 1.528486e-01
*     I = -4.694078e-04
*     J = 6.039801e-05
*     CF0 = 2.561972e+03
*     CPCOR = -9.570000e-08
*     CTCOR = 3.250000e-06
*     CSLOPE = 1.000000e+00
* pressure S/N = 1980, range = 508 psia:  22-nov-05
*     PA0 = 1.166340e-01
*     PA1 = 1.562008e-03
*     PA2 = 7.521856e-12
*     PTCA0 = 5.244793e+05
*     PTCA1 = 6.705477e+00
*     PTCA2 = -1.525623e-01
*     PTCB0 = 2.485325e+01
*     PTCB1 = -3.500000e-04
*     PTCB2 = 0.000000e+00
*     PTEMPA0 = -7.187026e+01
*     PTEMPA1 = 4.819360e+01
*     PTEMPA2 = -2.287845e-02
*     POFFSET = 0.000000e+00
* volt 0: offset = -4.716333e-02, slope = 1.249825e+00
* volt 1: offset = -4.705000e-02, slope = 1.250722e+00
* volt 2: offset = -4.720000e-02, slope = 1.250906e+00
* volt 3: offset = 0.000000e+00, slope = 1.000000e+00
*     EXTFREQSF = 1.000004e+00
* dh
* cast 144 22 Feb 2024 12:57:07 samples 201616 to 202613, avg = 1, stop = mag switch

* S>
# nquan = 16
# nvalues = 841                                   
# units = specified
# name 0 = depFM: Depth [fresh water, m]
# name 1 = tv290C: Temperature [ITS-90, deg C]
# name 2 = tv268C: Temperature [IPTS-68, deg C]
# name 3 = specc: Specific Conductance [uS/cm]
# name 4 = c0uS/cm: Conductivity [uS/cm]
# name 5 = prdE: Pressure, Strain Gauge [psi]
# name 6 = sbeox0Mg/L: Oxygen, SBE 43 [mg/l]
# name 7 = sbeox0PS: Oxygen, SBE 43 [% saturation]
# name 8 = oxsolMg/L: Oxygen Saturation, Garcia & Gordon [mg/l]
# name 9 = oxsatMg/L: Oxygen Saturation, Weiss [mg/l]
# name 10 = par: PAR/Irradiance, Biospherical/Licor
# name 11 = flCM: Fluorescence, Chelsea Mini Chl Con [ug/l]
# name 12 = bat: Beam Attenuation, Chelsea/Seatech [1/m]
# name 13 = xmiss: Beam Transmission, Chelsea/Seatech [%]
# name 14 = density00: Density [density, kg/m^3]
# name 15 = flag:  0.000e+00
# span 0 =     -0.638,     14.916                 
# span 1 =     9.8431,    23.2107                 
# span 2 =     9.8455,    23.2163                 
# span 3 =     -1.528,    207.721                 
# span 4 =  -1.451909, 197.449371                 
# span 5 =     -0.908,     21.215                 
# span 6 =    -0.2457,     9.6045                 
# span 7 =     -2.393,    112.445                 
# span 8 =    8.54138,   11.32645                 
# span 9 =    8.52286,   11.31537                 
# span 10 = 1.3056e-01, 3.1487e+02                
# span 11 =    -0.3612,    41.9901                
# span 12 =     1.2553,    15.2000                
# span 13 =     2.2371,    73.0644                
# span 14 =   997.5281,   999.8237                
# span 15 = 0.0000e+00, 0.0000e+00                
# interval = seconds: 0.25
# start_time = Feb 22 2024 12:57:07 [Instrument's time stamp, header]
# bad_flag = -9.990e-29
# <Sensors count="7" >
#   <sensor Channel="1" >
#     <!-- Count, Temperature -->
#     <TemperatureSensor SensorID="58" >
#       <SerialNumber>4268</SerialNumber>
#       <CalibrationDate>06-Dec-05</CalibrationDate>
#       <A0>1.16174900e-003</A0>
#       <A1>2.89177900e-004</A1>
#       <A2>-3.39356000e-006</A2>
#       <A3>2.88931900e-007</A3>
#       <Slope>1.00000000</Slope>
#       <Offset>0.0000</Offset>
#     </TemperatureSensor>
#   </sensor>
#   <sensor Channel="2" >
#     <!-- Frequency 0, Conductivity -->
#     <ConductivitySensor SensorID="3" >
#       <SerialNumber>4268</SerialNumber>
#       <CalibrationDate>06-Dec-05</CalibrationDate>
#       <UseG_J>1</UseG_J>
#       <!-- Cell const and series R are applicable only for wide range sensors. -->
#       <SeriesR>0.0000</SeriesR>
#       <CellConst>2000.0000</CellConst>
#       <ConductivityType>0</ConductivityType>
#       <Coefficients equation="0" >
#         <A>0.00000000e+000</A>
#         <B>0.00000000e+000</B>
#         <C>0.00000000e+000</C>
#         <D>0.00000000e+000</D>
#         <M>0.0</M>
#         <CPcor>-9.57000000e-008</CPcor>
#       </Coefficients>
#       <Coefficients equation="1" >
#         <G>-9.97781500e-001</G>
#         <H>1.52848600e-001</H>
#         <I>-4.69407800e-004</I>
#         <J>6.03980100e-005</J>
#         <CPcor>-9.57000000e-008</CPcor>
#         <CTcor>3.2500e-006</CTcor>
#         <!-- WBOTC not applicable unless ConductivityType = 1. -->
#         <WBOTC>0.00000000e+000</WBOTC>
#       </Coefficients>
#       <Slope>1.00000000</Slope>
#       <Offset>0.00000</Offset>
#     </ConductivitySensor>
#   </sensor>
#   <sensor Channel="3" >
#     <!-- Count, Pressure, Strain Gauge -->
#     <PressureSensor SensorID="46" >
#       <SerialNumber>4268</SerialNumber>
#       <CalibrationDate>22-Nov-05</CalibrationDate>
#       <PA0>1.16634000e-001</PA0>
#       <PA1>1.56200800e-003</PA1>
#       <PA2>7.52185600e-012</PA2>
#       <PTEMPA0>-7.18702600e+001</PTEMPA0>
#       <PTEMPA1>4.81936000e+001</PTEMPA1>
#       <PTEMPA2>-2.28784500e-002</PTEMPA2>
#       <PTCA0>5.24479300e+005</PTCA0>
#       <PTCA1>6.70547700e+000</PTCA1>
#       <PTCA2>-1.52562300e-001</PTCA2>
#       <PTCB0>2.48532500e+001</PTCB0>
#       <PTCB1>-3.50000000e-004</PTCB1>
#       <PTCB2>0.00000000e+000</PTCB2>
#       <Offset>0.000000</Offset>
#     </PressureSensor>
#   </sensor>
#   <sensor Channel="4" >
#     <!-- A/D voltage 0, Oxygen, SBE 43 -->
#     <OxygenSensor SensorID="38" >
#       <SerialNumber>0268</SerialNumber>
#       <CalibrationDate>29-Feb-20</CalibrationDate>
#       <Use2007Equation>1</Use2007Equation>
#       <CalibrationCoefficients equation="0" >
#         <!-- Coefficients for Owens-Millard equation. -->
#         <Boc>0.0000</Boc>
#         <Soc>3.1260e-001</Soc>
#         <offset>-0.4337</offset>
#         <Pcor>1.35e-004</Pcor>
#         <Tcor>0.0023</Tcor>
#         <Tau>0.0</Tau>
#       </CalibrationCoefficients>
#       <CalibrationCoefficients equation="1" >
#         <!-- Coefficients for Sea-Bird equation - SBE calibration in 2007 and later. -->
#         <Soc>5.4910e-001</Soc>
#         <offset>-0.4386</offset>
#         <A>-3.6337e-003</A>
#         <B> 1.0518e-004</B>
#         <C>-1.0368e-006</C>
#         <D0> 2.5826e+000</D0>
#         <D1> 1.92634e-004</D1>
#         <D2>-4.64803e-002</D2>
#         <E> 3.6000e-002</E>
#         <Tau20> 1.2800</Tau20>
#         <H1>-3.3000e-002</H1>
#         <H2> 5.0000e+003</H2>
#         <H3> 1.4500e+003</H3>
#       </CalibrationCoefficients>
#     </OxygenSensor>
#   </sensor>
#   <sensor Channel="5" >
#     <!-- A/D voltage 1, Transmissometer, Chelsea/Seatech -->
#     <TransChelseaSeatechWetlabCStarSensor SensorID="59" >
#       <SerialNumber>CST-612PR</SerialNumber>
#       <CalibrationDate>6/27/02</CalibrationDate>
#       <M>19.4066</M>
#       <B>-1.1062</B>
#       <PathLength>0.250</PathLength>
#     </TransChelseaSeatechWetlabCStarSensor>
#   </sensor>
#   <sensor Channel="6" >
#     <!-- A/D voltage 2, Fluorometer, Chelsea Minitracka -->
#     <FluoroChelseaMinitrackaSensor SensorID="6" >
#       <SerialNumber>175011</SerialNumber>
#       <CalibrationDate>26-Mar-97</CalibrationDate>
#       <Vacetone>0.013</Vacetone>
#       <Vacetone100>3.612</Vacetone100>
#       <Offset>0.000</Offset>
#     </FluoroChelseaMinitrackaSensor>
#   </sensor>
#   <sensor Channel="7" >
#     <!-- A/D voltage 3, PAR/Irradiance, Biospherical/Licor -->
#     <PAR_BiosphericalLicorChelseaSensor SensorID="42" >
#       <SerialNumber>6404</SerialNumber>
#       <CalibrationDate>29-Nov-05</CalibrationDate>
#       <M>-0.76668700</M>
#       <B>-3.43363000</B>
#       <CalibrationConstant>3.42000000</CalibrationConstant>
#       <Multiplier>1.00000000</Multiplier>
#       <Offset>0.00000000</Offset>
#     </PAR_BiosphericalLicorChelseaSensor>
#   </sensor>
# </Sensors>
# datcnv_date = Jun 04 2024 15:04:44, 7.26.7.129 [datcnv_vars = 15]
# datcnv_in = C:\Users\ir64\OneDrive - The University of Waikato\Documents\Sampling\CTD casts\2024.02 CTD casts\2024.02 Hex files\Feb144.hex C:\Users\ir64\OneDrive - The University of Waikato\Documents\Sampling\CTD Documents\New 4268 & 6165 con files\20200723_SBE19_4268.xmlcon
# datcnv_skipover = 0
# datcnv_ox_hysteresis_correction = yes
# datcnv_ox_tau_correction = yes
# file_type = ascii
*END*
     -0.635    22.4749    22.4803     -1.177  -1.117686     -0.903     8.3970     96.916    8.66420    8.64617 1.8491e+02    -0.3612     1.3016    72.2234   997.6601  0.000e+00
     -0.635    22.4761    22.4815     -1.273  -1.208838     -0.903     8.3986     96.937    8.66401    8.64597 1.6596e+02    -0.3612     1.3598    71.1811   997.6598  0.000e+00
     -0.636    22.4778    22.4832     -1.273  -1.208838     -0.905     8.3937     96.883    8.66374    8.64570 1.5423e+02    -0.3612     1.3486    71.3795   997.6594  0.000e+00
     -0.634    22.4790    22.4844     -1.369  -1.299990     -0.902     8.3932     96.880    8.66352    8.64549 1.5643e+02    -0.3612     1.3093    72.0842   997.6591  0.000e+00
     -0.636    22.4804    22.4858     -1.369  -1.299990     -0.905     8.3967     96.923    8.66330    8.64526 1.8538e+02    -0.3612     1.2747    72.7105   997.6588  0.000e+00
     -0.635    22.4815    22.4869     -1.369  -1.299990     -0.903     8.3956     96.912    8.66311    8.64507 2.1004e+02    -0.3612     1.2574    73.0259   997.6586  0.000e+00
     -0.638    22.4829    22.4883     -1.273  -1.208838     -0.908     8.3937     96.893    8.66288    8.64485 2.4193e+02    -0.0432     1.2553    73.0644   997.6582  0.000e+00
     -0.634    22.4845    22.4899     -1.273  -1.208838     -0.902     8.3965     96.928    8.66261    8.64457 2.4000e+02    -0.0665     1.2602    72.9756   997.6579  0.000e+00
     -0.635    22.4863    22.4916     -1.369  -1.299990     -0.903     8.3926     96.887    8.66233    8.64429 2.3635e+02    -0.0263     1.2659    72.8705   997.6575  0.000e+00
     -0.634    22.4882    22.4936     -1.369  -1.299990     -0.902     8.3934     96.899    8.66200    8.64396 2.4788e+02    -0.1005     1.2694    72.8068   997.6570  0.000e+00
     -0.632    22.4899    22.4953     -1.465  -1.391142     -0.899     8.3951     96.922    8.66173    8.64369 2.5080e+02    -0.1217     1.2697    72.8023   997.6566  0.000e+00
     -0.633    22.4914    22.4968     -1.369  -1.299990     -0.900     8.3949     96.922    8.66148    8.64343 2.5085e+02    -0.0729     1.2681    72.8305   997.6563  0.000e+00
     -0.635    22.4929    22.4983     -1.368  -1.299990     -0.903     8.3929     96.902    8.66122    8.64318 2.5702e+02    -0.1195     1.2667    72.8571   997.6559  0.000e+00
     -0.634    22.4947    22.5001     -1.272  -1.208838     -0.902     8.3935     96.912    8.66092    8.64288 2.8644e+02    -0.1768     1.2657    72.8749   997.6555  0.000e+00
     -0.633    22.4962    22.5016     -1.464  -1.391142     -0.900     8.3944     96.925    8.66068    8.64264 2.9639e+02    -0.0729     1.2652    72.8838   997.6552  0.000e+00
     -0.635    22.4976    22.5030     -1.368  -1.299990     -0.903     8.3976     96.965    8.66045    8.64241 3.0319e+02     0.5016     1.2655    72.8779   997.6548  0.000e+00
     -0.636    22.4991    22.5045     -1.272  -1.208838     -0.905     8.3937     96.923    8.66020    8.64215 3.1487e+02     1.3220     1.2642    72.9015   997.6545  0.000e+00
     -0.626    22.4998    22.5052     -1.528  -1.451909     -0.891     8.3940     96.928    8.66009    8.64204 3.1329e+02     1.8732     1.2645    72.8971   997.6544  0.000e+00
     -0.516    22.5222    22.5276    207.721 197.449371     -0.735     8.3829     96.897    8.65134    8.63327 2.5873e+02     1.8880     1.2651    72.8853   997.7264  0.000e+00
     -0.419    22.6835    22.6889    189.523 180.763414     -0.595     8.3610     96.937    8.62518    8.60700 2.3157e+02     7.0860     6.8372    18.0990   997.6828  0.000e+00
     -0.344    22.8472    22.8527    136.082 130.237424     -0.489     8.3339     96.910    8.59958    8.58129 2.3009e+02    13.6301    13.4079     3.5015   997.6259  0.000e+00
     -0.316    22.9761    22.9816    119.214 114.401289     -0.450     8.3117     96.885    8.57893    8.56056 2.2375e+02    12.3667    10.5973     7.0698   997.5898  0.000e+00
     -0.303    23.0657    23.0713    113.334 108.962381     -0.431     8.3004     96.916    8.56449    8.54606 2.2161e+02     9.9563    12.6129     4.2714   997.5665  0.000e+00
     -0.274    23.1155    23.1211    109.535 105.418718     -0.389     8.2897     96.882    8.55650    8.53804 2.2716e+02     8.4830    15.2000     2.2371   997.5535  0.000e+00
     -0.221    23.1440    23.1496    106.552 102.608674     -0.314     8.2881     96.915    8.55196    8.53348 2.2273e+02     7.5799    12.4299     4.4713   997.5460  0.000e+00
     -0.146    23.1592    23.1647    106.360 102.455962     -0.208     8.2977     97.055    8.54951    8.53102 2.2421e+02     8.5084     4.4352    32.9956   997.5426  0.000e+00
     -0.089    23.1658    23.1713    111.291 107.220996     -0.127     8.3224     97.357    8.54833    8.52984 1.6268e+02     7.5948     2.2607    56.8264   997.5430  0.000e+00
     -0.065    23.1672    23.1728    115.061 110.856620     -0.092     8.3514     97.700    8.54801    8.52952 1.4303e+02     6.4521     1.9392    61.5821   997.5440  0.000e+00
     -0.057    23.1536    23.1592    118.679 114.309547     -0.081     8.4052     98.305    8.55013    8.53164 1.5867e+02     5.6593     1.8656    62.7252   997.5486  0.000e+00
     -0.051    23.1206    23.1262    122.793 118.190982     -0.072     8.4626     98.915    8.55538    8.53692 1.3861e+02     4.9640     1.8458    63.0361   997.5579  0.000e+00
     -0.056    23.0957    23.1012    122.189 117.549130     -0.080     8.5109     99.433    8.55944    8.54099 1.6198e+02     4.3047     1.8449    63.0509   997.5636  0.000e+00
     -0.056    23.0808    23.0863    118.446 113.912305     -0.080     8.5536     99.903    8.56193    8.54350 1.6220e+02     3.8107     1.8224    63.4063   997.5658  0.000e+00
     -0.055    23.0708    23.0764    116.404 111.926081     -0.078     8.5803    100.196    8.56360    8.54517 1.5408e+02     3.5839     1.8417    63.1013   997.5675  0.000e+00
     -0.048    23.0690    23.0745    114.788 110.367794     -0.069     8.5903    100.308    8.56393    8.54550 1.4621e+02     3.3295     1.8313    63.2656   997.5674  0.000e+00
     -0.047    23.0824    23.0879    110.627 106.396227     -0.067     8.5815    100.229    8.56185    8.54342 1.4461e+02     3.2787     1.8163    63.5040   997.5628  0.000e+00
     -0.042    23.1031    23.1086    107.087 103.036278     -0.059     8.5721    100.158    8.55857    8.54012 1.4166e+02     3.0836     1.8253    63.3604   997.5567  0.000e+00
     -0.041    23.1233    23.1289    104.885 100.959497     -0.058     8.5637    100.097    8.55534    8.53688 1.5726e+02     2.9861     1.8998    62.1922   997.5511  0.000e+00
     -0.031    23.1402    23.1457    103.833  99.982260     -0.044     8.6073    100.639    8.55264    8.53417 1.3405e+02     2.8886     1.8382    63.1560   997.5468  0.000e+00
     -0.019    23.1533    23.1589    103.551  99.737955     -0.027     8.6091    100.685    8.55052    8.53204 1.2993e+02     2.7868     1.8919    62.3150   997.5436  0.000e+00
     -0.006    23.1629    23.1684    103.594  99.799027     -0.008     8.5235     99.702    8.54897    8.53048 1.3023e+02     2.6745     1.8355    63.1990   997.5414  0.000e+00
     -0.001    23.1700    23.1756    103.071  99.310431     -0.002     8.3706     97.926    8.54782    8.52933 1.3712e+02     2.5854     1.8351    63.2064   997.5395  0.000e+00
     -0.001    23.1749    23.1804    103.251  99.493651     -0.002     8.1924     95.851    8.54703    8.52854 1.3991e+02     2.5876     1.8321    63.2538   997.5384  0.000e+00
     -0.011    23.1784    23.1839    103.053  99.310429     -0.016     7.9824     93.400    8.54647    8.52797 1.2391e+02     2.5261     1.8280    63.3174   997.5375  0.000e+00
     -0.020    23.1811    23.1867    102.446  98.730238     -0.028     7.7758     90.987    8.54604    8.52755 1.4454e+02     2.4519     1.8057    63.6728   997.5366  0.000e+00
     -0.022    23.1833    23.1889    102.029  98.333275     -0.031     7.5804     88.705    8.54570    8.52720 1.4149e+02     2.5388     1.8009    63.7483   997.5359  0.000e+00
     -0.019    23.1854    23.1910    101.834  98.150064     -0.027     7.4068     86.677    8.54536    8.52686 1.2693e+02     2.5155     1.8152    63.5203   997.5354  0.000e+00
     -0.014    23.1870    23.1925    102.877  99.157743     -0.020     7.3055     85.493    8.54508    8.52658 1.3982e+02     2.3904     1.8012    63.7439   997.5354  0.000e+00
     -0.010    23.1860    23.1916    107.410 103.524935     -0.014     7.2664     85.036    8.54514    8.52664 1.3867e+02     2.5155     1.8061    63.6654   997.5372  0.000e+00
     -0.009    23.1831    23.1887    107.828 103.922000     -0.013     7.2497     84.836    8.54560    8.52710 1.2895e+02     2.3798     1.7978    63.7986   997.5380  0.000e+00
     -0.013    23.1828    23.1883    103.234  99.493648     -0.019     7.2342     84.653    8.54576    8.52726 1.4922e+02     2.3798     1.7943    63.8534   997.5365  0.000e+00
     -0.017    23.1845    23.1901    103.135  99.402037     -0.023     7.2158     84.440    8.54548    8.52698 1.3947e+02     2.4858     1.8028    63.7187   997.5360  0.000e+00
     -0.019    23.1872    23.1927    101.831  98.150064     -0.027     7.1853     84.087    8.54508    8.52658 1.3609e+02     2.5282     1.8068    63.6550   997.5350  0.000e+00
     -0.018    23.1889    23.1945    101.669  97.997389     -0.025     7.1654     83.857    8.54480    8.52630 1.3219e+02     2.5791     1.8124    63.5647   997.5345  0.000e+00
     -0.015    23.1896    23.1952    101.762  98.088993     -0.022     7.1266     83.404    8.54468    8.52618 1.3681e+02     2.5240     1.7983    63.7898   997.5344  0.000e+00
     -0.014    23.1898    23.1954    101.540  97.875250     -0.020     7.0714     82.759    8.54466    8.52616 1.1515e+02     2.3268     1.7966    63.8164   997.5342  0.000e+00
     -0.011    23.1894    23.1950    101.826  98.150063     -0.016     7.0015     81.940    8.54471    8.52621 1.2205e+02     2.4010     1.8078    63.6387   997.5344  0.000e+00
     -0.009    23.1896    23.1952    101.572  97.905785     -0.013     6.9094     80.862    8.54469    8.52618 1.3867e+02     2.4710     1.8093    63.6150   997.5343  0.000e+00
     -0.010    23.1893    23.1948    101.415  97.753112     -0.014     6.8184     79.796    8.54475    8.52624 1.3969e+02     2.4964     1.8250    63.3663   997.5343  0.000e+00
     -0.012    23.1893    23.1948    101.415  97.753112     -0.017     6.7328     78.794    8.54475    8.52624 1.2423e+02     2.4752     1.8005    63.7542   997.5343  0.000e+00
     -0.012    23.1895    23.1951    101.256  97.600441     -0.017     6.6342     77.641    8.54471    8.52620 1.3700e+02     2.4371     1.8072    63.6476   997.5342  0.000e+00
     -0.015    23.1898    23.1954    101.255  97.600441     -0.022     6.5616     76.792    8.54467    8.52616 1.2231e+02     2.4328     1.8058    63.6698   997.5341  0.000e+00
     -0.019    23.1905    23.1961    101.063  97.417237     -0.027     6.5096     76.185    8.54456    8.52605 1.3819e+02     2.4031     1.8471    63.0169   997.5339  0.000e+00
     -0.020    23.1903    23.1959    101.254  97.600441     -0.028     6.4950     76.013    8.54458    8.52608 1.3328e+02     2.4201     1.8377    63.1649   997.5340  0.000e+00
     -0.015    23.1902    23.1958    100.969  97.325635     -0.022     6.4949     76.012    8.54460    8.52610 1.2801e+02     2.4540     1.8236    63.3885   997.5339  0.000e+00
     -0.007    23.1905    23.1961    100.652  97.020301     -0.009     6.5236     76.348    8.54457    8.52606 1.2247e+02     2.3459     1.8036    63.7054   997.5338  0.000e+00
     -0.003    23.1904    23.1960    101.064  97.417237     -0.005     6.5662     76.846    8.54457    8.52607 1.4551e+02     2.4180     1.8454    63.0435   997.5340  0.000e+00
     -0.009    23.1885    23.1940    100.909  97.264569     -0.013     6.6155     77.421    8.54489    8.52638 1.4059e+02     2.4625     1.8106    63.5943   997.5344  0.000e+00
     -0.011    23.1851    23.1907    101.075  97.417238     -0.016     6.6637     77.979    8.54542    8.52692 1.1452e+02     2.3565     1.8395    63.1368   997.5352  0.000e+00
     -0.011    23.1841    23.1897    101.172  97.508841     -0.016     6.6931     78.323    8.54559    8.52709 1.2699e+02     2.3819     1.9065    62.0870   997.5355  0.000e+00
     -0.012    23.1855    23.1911    100.219  96.592841     -0.017     6.7236     78.682    8.54538    8.52688 1.3035e+02     2.3692     1.8494    62.9799   997.5348  0.000e+00
     -0.010    23.1865    23.1921    100.058  96.440178     -0.014     6.7694     79.219    8.54522    8.52672 1.1734e+02     2.4074     1.8068    63.6550   997.5345  0.000e+00
     -0.009    23.1874    23.1930     99.961  96.348581     -0.013     6.8167     79.773    8.54508    8.52658 1.3377e+02     2.3735     1.8045    63.6906   997.5343  0.000e+00
     -0.009    23.1870    23.1925     99.962  96.348581     -0.013     6.8521     80.187    8.54515    8.52665 1.4004e+02     2.4053     1.8207    63.4344   997.5344  0.000e+00
     -0.010    23.1860    23.1916     99.806  96.195921     -0.014     6.8536     80.203    8.54531    8.52681 1.2166e+02     2.3819     1.8044    63.6920   997.5346  0.000e+00
     -0.014    23.1846    23.1902    100.157  96.531776     -0.020     6.8368     80.005    8.54553    8.52703 1.4395e+02     2.4540     1.8321    63.2538   997.5350  0.000e+00
     -0.017    23.1847    23.1903    100.474  96.837104     -0.024     6.7914     79.473    8.54551    8.52701 1.3525e+02     2.4010     1.8247    63.3707   997.5351  0.000e+00
     -0.011    23.1858    23.1914    100.218  96.592841     -0.016     6.7397     78.870    8.54533    8.52683 1.2394e+02     2.4773     1.8177    63.4818   997.5347  0.000e+00
     -0.008    23.1867    23.1923     99.868  96.256985     -0.011     6.6899     78.289    8.54519    8.52669 1.4056e+02     2.3904     1.7973    63.8060   997.5344  0.000e+00
     -0.002    23.1874    23.1930     99.866  96.256985     -0.003     6.6532     77.860    8.54508    8.52658 1.2760e+02     2.4328     1.8119    63.5736   997.5343  0.000e+00
     -0.000    23.1881    23.1937    100.150  96.531775     -0.000     6.6340     77.636    8.54496    8.52646 1.2822e+02     2.4010     1.7812    64.0637   997.5342  0.000e+00
     -0.001    23.1871    23.1926     99.804  96.195921     -0.002     6.6245     77.524    8.54514    8.52664 1.2292e+02     2.5007     1.7779    64.1155   997.5344  0.000e+00
     -0.004    23.1851    23.1906     99.808  96.195921     -0.006     6.6097     77.347    8.54546    8.52696 1.2621e+02     2.3904     1.8081    63.6343   997.5348  0.000e+00
     -0.004    23.1842    23.1897    100.063  96.440179     -0.006     6.5906     77.123    8.54560    8.52710 1.4454e+02     2.4498     1.8242    63.3781   997.5351  0.000e+00
     -0.006    23.1853    23.1909     99.712  96.104325     -0.008     6.5653     76.828    8.54542    8.52692 1.1675e+02     2.4604     1.8020    63.7305   997.5347  0.000e+00
     -0.006    23.1865    23.1921     99.456  95.860072     -0.008     6.5374     76.504    8.54523    8.52673 1.3969e+02     2.4328     1.7953    63.8371   997.5343  0.000e+00
     -0.003    23.1879    23.1934     99.453  95.860071     -0.005     6.5176     76.273    8.54502    8.52652 1.3544e+02     2.3565     1.8078    63.6387   997.5340  0.000e+00
     -0.001    23.1883    23.1939     99.294  95.707414     -0.002     6.5166     76.262    8.54495    8.52645 1.3479e+02     2.3417     1.8266    63.3396   997.5339  0.000e+00
     -0.002    23.1875    23.1931     99.359  95.768477     -0.003     6.5256     76.367    8.54508    8.52657 1.2875e+02     2.3077     1.8420    63.0968   997.5341  0.000e+00
     -0.002    23.1864    23.1919     99.298  95.707415     -0.003     6.5264     76.374    8.54526    8.52676 1.4120e+02     2.3120     1.8111    63.5854   997.5343  0.000e+00
     -0.003    23.1854    23.1910     99.364  95.768478     -0.005     6.5284     76.397    8.54542    8.52692 1.3101e+02     2.3035     1.7902    63.9186   997.5346  0.000e+00
     -0.003    23.1851    23.1906     99.491  95.890604     -0.005     6.5007     76.072    8.54547    8.52697 1.2670e+02     2.2908     1.7940    63.8579   997.5347  0.000e+00
     -0.006    23.1851    23.1906     99.618  96.012730     -0.008     6.4777     75.803    8.54547    8.52697 1.3270e+02     2.2357     1.8057    63.6728   997.5348  0.000e+00
     -0.003    23.1853    23.1909     99.807  96.195921     -0.005     6.4446     75.416    8.54542    8.52692 1.3734e+02     2.2590     1.7945    63.8505   997.5348  0.000e+00
     -0.003    23.1850    23.1905     99.966  96.348582     -0.005     6.4157     75.077    8.54548    8.52697 1.3086e+02     2.3162     1.8096    63.6106   997.5349  0.000e+00
     -0.003    23.1836    23.1892     99.811  96.195922     -0.005     6.3857     74.724    8.54569    8.52719 1.3599e+02     2.2357     1.8125    63.5632   997.5352  0.000e+00
     -0.003    23.1827    23.1882     99.623  96.012731     -0.005     6.3633     74.461    8.54585    8.52735 1.2928e+02     2.3947     1.8283    63.3130   997.5353  0.000e+00
     -0.002    23.1820    23.1875     99.624  96.012731     -0.003     6.3446     74.241    8.54596    8.52747 1.0765e+02     2.2738     1.8138    63.5425   997.5355  0.000e+00
     -0.002    23.1818    23.1874     99.624  96.012731     -0.003     6.3350     74.128    8.54599    8.52749 1.4149e+02     2.2420     1.8187    63.4655   997.5356  0.000e+00
     -0.003    23.1815    23.1870     99.815  96.195922     -0.005     6.3325     74.099    8.54605    8.52755 1.3313e+02     2.2611     1.7899    63.9245   997.5357  0.000e+00
     -0.004    23.1808    23.1864    100.165  96.531777     -0.006     6.3250     74.011    8.54614    8.52764 1.0652e+02     2.2145     1.8102    63.6002   997.5360  0.000e+00
     -0.004    23.1798    23.1854    100.231  96.592843     -0.006     6.3157     73.900    8.54631    8.52781 1.4963e+02     2.2696     1.8205    63.4374   997.5362  0.000e+00
     -0.004    23.1785    23.1840     99.980  96.348584     -0.006     6.2909     73.608    8.54652    8.52803 1.1374e+02     2.3056     1.8290    63.3026   997.5365  0.000e+00
     -0.003    23.1768    23.1824     99.635  96.012733     -0.005     6.2657     73.310    8.54680    8.52831 1.4081e+02     2.3120     1.8030    63.7142   997.5367  0.000e+00
     -0.001    23.1761    23.1817     99.636  96.012733     -0.002     6.2359     72.960    8.54692    8.52842 1.1534e+02     2.2929     1.7749    64.1644   997.5369  0.000e+00
     -0.000    23.1765    23.1820     99.477  95.860075     -0.000     6.2021     72.566    8.54686    8.52837 1.3454e+02     2.2802     1.7751    64.1614   997.5368  0.000e+00
     -0.002    23.1772    23.1827     99.476  95.860074     -0.003     6.1717     72.211    8.54675    8.52825 1.3788e+02     2.3607     1.7833    64.0296   997.5366  0.000e+00
      0.003    23.1774    23.1830     99.633  96.012733      0.005     6.1486     71.942    8.54670    8.52821 1.2644e+02     2.4286     1.8068    63.6550   997.5366  0.000e+00
     -0.002    23.1772    23.1828     99.729  96.104328     -0.003     6.1304     71.728    8.54673    8.52823 1.3475e+02     2.5897     1.8112    63.5839   997.5367  0.000e+00
     -0.002    23.1764    23.1819     99.984  96.348585     -0.003     6.1132     71.526    8.54687    8.52837 1.2141e+02     2.5240     1.7748    64.1658   997.5370  0.000e+00
     -0.001    23.1751    23.1806     99.987  96.348585     -0.002     6.1004     71.374    8.54708    8.52858 1.3197e+02     2.5134     1.7785    64.1066   997.5373  0.000e+00
     -0.001    23.1736    23.1792     99.831  96.195925     -0.002     6.0733     71.056    8.54731    8.52881 1.3571e+02     2.4477     1.8017    63.7365   997.5376  0.000e+00
     -0.001    23.1722    23.1777     99.898  96.256989     -0.002     6.0457     70.731    8.54755    8.52905 1.1769e+02     2.3141     1.8036    63.7054   997.5380  0.000e+00
      0.001    23.1710    23.1766     99.837  96.195926      0.001     6.0171     70.394    8.54773    8.52924 1.2077e+02     2.3968     1.7992    63.7749   997.5382  0.000e+00
     -0.002    23.1695    23.1751     99.745  96.104330     -0.003     5.9832     69.995    8.54798    8.52949 1.3544e+02     2.3671     1.8355    63.1990   997.5385  0.000e+00
     -0.000    23.1688    23.1744     99.905  96.256990     -0.000     5.9493     69.598    8.54809    8.52960 1.2517e+02     2.4392     1.8190    63.4611   997.5388  0.000e+00
     -0.000    23.1678    23.1733    100.097  96.440184     -0.000     5.9164     69.212    8.54825    8.52976 1.4312e+02     2.4137     1.8191    63.4596   997.5391  0.000e+00
     -0.001    23.1667    23.1723    100.099  96.440185     -0.002     5.8823     68.811    8.54842    8.52993 1.3441e+02     2.3756     1.7961    63.8253   997.5393  0.000e+00
     -0.001    23.1652    23.1708     99.912  96.256992     -0.002     5.8541     68.480    8.54867    8.53018 1.2719e+02     2.4371     1.7984    63.7883   997.5396  0.000e+00
      0.001    23.1641    23.1696     99.851  96.195928      0.002     5.8261     68.151    8.54885    8.53037 1.2483e+02     2.4773     1.7927    63.8801   997.5399  0.000e+00
      0.001    23.1630    23.1686     99.600  95.951674      0.001     5.8037     67.887    8.54903    8.53054 1.4208e+02     2.4858     1.8391    63.1427   997.5400  0.000e+00
      0.001    23.1624    23.1680     99.760  96.104333      0.001     5.7777     67.582    8.54913    8.53064 1.0201e+02     2.3650     1.7959    63.8283   997.5402  0.000e+00
      0.001    23.1616    23.1672    100.110  96.440186      0.001     5.7586     67.358    8.54925    8.53076 1.4111e+02     2.4265     1.7886    63.9452   997.5405  0.000e+00
      0.003    23.1606    23.1661    100.207  96.531784      0.005     5.7456     67.205    8.54941    8.53093 1.2127e+02     2.3438     1.8100    63.6032   997.5408  0.000e+00
      0.003    23.1592    23.1647    100.210  96.531784      0.005     5.7156     66.852    8.54964    8.53116 1.3423e+02     2.3629     1.8112    63.5839   997.5412  0.000e+00
      0.003    23.1580    23.1636     99.864  96.195930      0.005     5.6966     66.628    8.54983    8.53135 1.3176e+02     2.3565     1.7969    63.8120   997.5413  0.000e+00
      0.004    23.1572    23.1627     99.612  95.951675      0.006     5.6754     66.379    8.54998    8.53150 1.4786e+02     2.3777     1.7948    63.8460   997.5415  0.000e+00
      0.001    23.1566    23.1622     99.360  95.707424      0.001     5.6571     66.164    8.55007    8.53159 1.2205e+02     2.3883     1.7995    63.7705   997.5415  0.000e+00
     -0.001    23.1563    23.1618     99.646  95.982207     -0.002     5.6400     65.964    8.55012    8.53164 1.5373e+02     2.4010     1.7941    63.8564   997.5417  0.000e+00
     -0.000    23.1554    23.1610     99.425  95.768487     -0.000     5.6300     65.846    8.55027    8.53179 1.3246e+02     2.4583     1.8016    63.7379   997.5418  0.000e+00
     -0.004    23.1551    23.1607     99.521  95.860081     -0.006     5.6199     65.728    8.55031    8.53183 1.3829e+02     2.5388     1.8124    63.5647   997.5419  0.000e+00
     -0.004    23.1546    23.1602     99.364  95.707425     -0.006     5.6147     65.666    8.55040    8.53192 1.3101e+02     2.4286     1.8116    63.5780   997.5419  0.000e+00
     -0.003    23.1542    23.1597     99.618  95.951676     -0.005     5.6075     65.581    8.55046    8.53198 1.3744e+02     2.4540     1.8073    63.6461   997.5421  0.000e+00
     -0.001    23.1535    23.1590     99.778  96.104335     -0.002     5.6051     65.553    8.55057    8.53209 1.2389e+02     2.3925     1.8258    63.3530   997.5424  0.000e+00
     -0.001    23.1522    23.1578    100.034  96.348592     -0.002     5.5979     65.466    8.55077    8.53228 1.4786e+02     2.4053     1.7939    63.8608   997.5427  0.000e+00
     -0.003    23.1508    23.1563     99.942  96.256996     -0.005     5.5865     65.332    8.55101    8.53253 1.3008e+02     2.5070     1.7847    64.0074   997.5431  0.000e+00
     -0.002    23.1493    23.1548     99.787  96.104337     -0.003     5.5712     65.151    8.55125    8.53277 1.3816e+02     2.4116     1.7875    63.9630   997.5434  0.000e+00
     -0.004    23.1483    23.1539     99.535  95.860083     -0.006     5.5531     64.938    8.55141    8.53294 1.1715e+02     2.4010     1.7758    64.1495   997.5435  0.000e+00
     -0.003    23.1474    23.1530     99.696  96.012742     -0.005     5.5364     64.742    8.55155    8.53308 1.4224e+02     2.4371     1.7729    64.1969   997.5438  0.000e+00
     -0.006    23.1465    23.1521     99.792  96.104337     -0.008     5.5193     64.540    8.55169    8.53322 1.4101e+02     2.4074     1.8081    63.6343   997.5440  0.000e+00
     -0.006    23.1456    23.1511     99.636  95.951679     -0.008     5.5099     64.429    8.55185    8.53338 1.3179e+02     2.3523     1.7933    63.8697   997.5442  0.000e+00
     -0.009    23.1446    23.1502     99.543  95.860085     -0.013     5.4977     64.285    8.55201    8.53353 1.4581e+02     2.3374     1.8051    63.6817   997.5444  0.000e+00
     -0.009    23.1439    23.1495     99.386  95.707428     -0.013     5.4856     64.143    8.55213    8.53365 1.3609e+02     2.3692     1.7988    63.7824   997.5445  0.000e+00
     -0.006    23.1431    23.1487     99.641  95.951680     -0.008     5.4807     64.085    8.55225    8.53377 1.1817e+02     2.2887     1.7889    63.9393   997.5448  0.000e+00
     -0.004    23.1428    23.1483     99.642  95.951680     -0.006     5.4776     64.048    8.55231    8.53383 1.2247e+02     2.3756     1.8078    63.6387   997.5449  0.000e+00
     -0.003    23.1416    23.1472     99.898  96.195935     -0.005     5.4680     63.935    8.55249    8.53401 1.4688e+02     2.3904     1.7942    63.8549   997.5452  0.000e+00
     -0.004    23.1407    23.1462     99.963  96.256999     -0.006     5.4820     64.098    8.55264    8.53417 1.2494e+02     2.5854     1.8102    63.6002   997.5455  0.000e+00
     -0.001    23.1393    23.1448     99.903  96.195936     -0.002     5.4634     63.878    8.55287    8.53440 1.3678e+02     2.7105     1.7858    63.9896   997.5458  0.000e+00
     -0.004    23.1376    23.1432     99.811  96.104340     -0.006     5.4516     63.738    8.55314    8.53467 1.3313e+02     2.6978     1.7798    64.0859   997.5461  0.000e+00
     -0.007    23.1364    23.1419     99.814  96.104341     -0.009     5.4394     63.594    8.55334    8.53487 1.4114e+02     2.6427     1.7820    64.0503   997.5464  0.000e+00
     -0.007    23.1352    23.1407     99.721  96.012746     -0.009     5.4278     63.457    8.55354    8.53507 1.4395e+02     2.5367     1.7824    64.0444   997.5467  0.000e+00
     -0.007    23.1341    23.1397     99.723  96.012746     -0.009     5.4122     63.273    8.55371    8.53524 1.4078e+02     2.5218     1.8005    63.7542   997.5469  0.000e+00
     -0.006    23.1332    23.1388     99.662  95.951683     -0.008     5.3990     63.118    8.55385    8.53538 1.2423e+02     2.4773     1.8075    63.6432   997.5471  0.000e+00
     -0.004    23.1324    23.1380     99.568  95.860088     -0.006     5.3875     62.983    8.55398    8.53551 1.2352e+02     2.4773     1.8132    63.5529   997.5473  0.000e+00
     -0.004    23.1315    23.1370     99.665  95.951683     -0.006     5.3767     62.855    8.55414    8.53567 1.3816e+02     2.4604     1.8007    63.7513   997.5476  0.000e+00
     -0.006    23.1306    23.1362     99.667  95.951684     -0.008     5.3769     62.856    8.55428    8.53581 1.2094e+02     2.3947     1.8113    63.5825   997.5478  0.000e+00
     -0.007    23.1300    23.1355     99.732  96.012747     -0.009     5.3699     62.774    8.55438    8.53591 1.4234e+02     2.4583     1.7829    64.0355   997.5479  0.000e+00
     -0.003    23.1290    23.1346     99.670  95.951684     -0.005     5.3696     62.769    8.55453    8.53607 1.3687e+02     2.4095     1.7866    63.9763   997.5481  0.000e+00
     -0.004    23.1282    23.1338     99.735  96.012748     -0.006     5.3663     62.730    8.55466    8.53619 1.2309e+02     2.3735     1.7935    63.8667   997.5484  0.000e+00
     -0.004    23.1269    23.1325     99.738  96.012748     -0.006     5.3621     62.679    8.55487    8.53641 1.3731e+02     2.3925     1.8085    63.6269   997.5487  0.000e+00
     -0.004    23.1259    23.1314     99.835  96.104344     -0.006     5.3565     62.612    8.55504    8.53658 1.4234e+02     2.3395     1.7790    64.0977   997.5489  0.000e+00
     -0.003    23.1250    23.1305     99.837  96.104344     -0.005     5.3517     62.555    8.55518    8.53672 1.3870e+02     2.3480     1.7834    64.0281   997.5492  0.000e+00
     -0.004    23.1239    23.1295     99.998  96.257004     -0.006     5.3405     62.423    8.55535    8.53689 1.3083e+02     2.2971     1.8040    63.6994   997.5495  0.000e+00
     -0.006    23.1227    23.1283     99.937  96.195941     -0.008     5.3319     62.321    8.55555    8.53709 1.4198e+02     2.1636     1.8278    63.3219   997.5497  0.000e+00
     -0.003    23.1217    23.1272     99.939  96.195941     -0.005     5.3212     62.194    8.55572    8.53726 1.2061e+02     2.2441     1.7955    63.8342   997.5500  0.000e+00
     -0.004    23.1204    23.1260     99.942  96.195941     -0.006     5.3101     62.063    8.55592    8.53746 1.2500e+02     2.2335     1.8146    63.5306   997.5503  0.000e+00
     -0.003    23.1199    23.1255     99.848  96.104346     -0.005     5.2985     61.928    8.55600    8.53754 1.3322e+02     2.3226     1.8197    63.4492   997.5504  0.000e+00
     -0.006    23.1191    23.1247     99.849  96.104346     -0.008     5.2884     61.808    8.55613    8.53767 1.3772e+02     2.3713     1.8166    63.4981   997.5506  0.000e+00
     -0.007    23.1180    23.1235     99.947  96.195942     -0.009     5.2790     61.697    8.55631    8.53786 1.1750e+02     2.2293     1.7997    63.7675   997.5509  0.000e+00
     -0.003    23.1171    23.1227     99.695  95.951688     -0.005     5.2718     61.612    8.55646    8.53800 1.3653e+02     2.3459     1.8093    63.6150   997.5510  0.000e+00
     -0.001    23.1162    23.1218     99.697  95.951688     -0.002     5.2686     61.573    8.55660    8.53815 1.3337e+02     2.3056     1.8083    63.6313   997.5512  0.000e+00
     -0.002    23.1158    23.1213     99.761  96.012752     -0.003     5.2615     61.490    8.55667    8.53822 1.3460e+02     2.4031     1.8276    63.3248   997.5513  0.000e+00
     -0.000    23.1153    23.1208     99.762  96.012752     -0.000     5.2610     61.483    8.55676    8.53830 1.2895e+02     2.3756     1.7986    63.7853   997.5515  0.000e+00
     -0.000    23.1144    23.1199     99.954  96.195943     -0.000     5.2570     61.436    8.55690    8.53844 1.3826e+02     2.4010     1.8097    63.6091   997.5517  0.000e+00
     -0.002    23.1134    23.1190    100.020  96.257008     -0.003     5.2546     61.407    8.55705    8.53860 1.3056e+02     2.4074     1.8505    62.9621   997.5520  0.000e+00
     -0.002    23.1125    23.1180    100.022  96.257008     -0.003     5.2467     61.314    8.55721    8.53875 1.2186e+02     2.6003     1.8225    63.4048   997.5522  0.000e+00
     -0.001    23.1119    23.1174    100.023  96.257008     -0.002     5.2429     61.268    8.55731    8.53885 1.4169e+02     2.5770     1.8182    63.4729   997.5524  0.000e+00
     -0.001    23.1112    23.1168    100.024  96.257008     -0.002     5.2346     61.171    8.55741    8.53895 1.2931e+02     2.5049     1.7799    64.0844   997.5525  0.000e+00
     -0.000    23.1106    23.1162    100.121  96.348605     -0.000     5.2257     61.065    8.55750    8.53905 1.2592e+02     2.5791     1.7953    63.8371   997.5527  0.000e+00
     -0.002    23.1097    23.1152    100.123  96.348606     -0.003     5.2159     60.950    8.55766    8.53921 1.3870e+02     2.5430     1.8278    63.3219   997.5529  0.000e+00
     -0.003    23.1089    23.1144    100.124  96.348606     -0.005     5.2028     60.797    8.55779    8.53933 1.1382e+02     2.5197     1.8167    63.4966   997.5531  0.000e+00
     -0.004    23.1082    23.1137    100.126  96.348606     -0.006     5.1959     60.715    8.55790    8.53945 1.2615e+02     2.5388     1.8104    63.5973   997.5533  0.000e+00
     -0.003    23.1078    23.1134    100.190  96.409671     -0.005     5.1826     60.559    8.55796    8.53950 1.1934e+02     2.5261     1.8119    63.5736   997.5534  0.000e+00
     -0.003    23.1073    23.1128    100.223  96.440203     -0.005     5.1724     60.439    8.55804    8.53959 1.4621e+02     2.4583     1.8132    63.5529   997.5535  0.000e+00
     -0.001    23.1069    23.1124    100.224  96.440203     -0.002     5.1569     60.257    8.55811    8.53966 1.1314e+02     2.4116     1.7959    63.8283   997.5536  0.000e+00
     -0.000    23.1062    23.1117    100.320  96.531801     -0.000     5.1474     60.145    8.55822    8.53977 1.4078e+02     2.4477     1.7758    64.1495   997.5538  0.000e+00
     -0.002    23.1055    23.1110    100.481  96.684464     -0.003     5.1386     60.042    8.55833    8.53988 1.2097e+02     2.4095     1.8873    62.3861   997.5540  0.000e+00
     -0.001    23.1050    23.1106    100.831  97.020328     -0.002     5.1305     59.947    8.55840    8.53994 1.4091e+02     2.4286     1.7925    63.8830   997.5543  0.000e+00
     -0.003    23.1051    23.1107    100.830  97.020327     -0.005     5.1241     59.872    8.55838    8.53993 1.3612e+02     2.4561     1.7920    63.8904   997.5542  0.000e+00
     -0.004    23.1053    23.1108    100.893  97.081394     -0.006     5.1080     59.685    8.55835    8.53990 1.4504e+02     2.4689     1.7900    63.9230   997.5542  0.000e+00
     -0.003    23.1050    23.1106    100.735  96.928728     -0.005     5.0953     59.536    8.55840    8.53995 1.3516e+02     2.5070     1.7883    63.9497   997.5542  0.000e+00
     -0.003    23.1049    23.1104    101.243  97.417264     -0.005     5.0830     59.391    8.55841    8.53996 1.3279e+02     2.4816     1.7914    63.9008   997.5544  0.000e+00
     -0.004    23.1047    23.1102    101.149  97.325663     -0.006     5.0691     59.229    8.55844    8.53999 1.3264e+02     2.4985     1.7898    63.9260   997.5544  0.000e+00
     -0.003    23.1047    23.1102    101.244  97.417264     -0.005     5.0529     59.040    8.55844    8.53999 1.3310e+02     2.5791     1.7868    63.9734   997.5545  0.000e+00
     -0.002    23.1049    23.1104    100.990  97.172994     -0.003     5.0422     58.915    8.55842    8.53997 1.2934e+02     2.6490     1.7909    63.9082   997.5544  0.000e+00
     -0.003    23.1044    23.1100    101.340  97.508866     -0.005     5.0298     58.770    8.55848    8.54003 1.2391e+02     2.5536     1.8057    63.6713   997.5546  0.000e+00
     -0.006    23.1039    23.1094    101.436  97.600468     -0.008     5.0179     58.630    8.55857    8.54012 1.3420e+02     2.5218     1.7986    63.7853   997.5547  0.000e+00
     -0.004    23.1035    23.1091    101.500  97.661537     -0.006     5.0110     58.549    8.55862    8.54017 1.2377e+02     2.4604     1.7865    63.9778   997.5548  0.000e+00
     -0.008    23.1036    23.1092    101.690  97.844743     -0.011     5.0059     58.489    8.55860    8.54015 1.3420e+02     2.4816     1.8580    62.8451   997.5549  0.000e+00
     -0.004    23.1036    23.1092    101.690  97.844743     -0.006     4.9937     58.347    8.55860    8.54015 1.3880e+02     2.6278     1.8141    63.5380   997.5549  0.000e+00
     -0.004    23.1035    23.1091    101.564  97.722605     -0.006     4.9876     58.275    8.55862    8.54017 1.2250e+02     2.6024     1.7949    63.8445   997.5549  0.000e+00
     -0.006    23.1030    23.1086    101.501  97.661537     -0.008     4.9744     58.121    8.55871    8.54026 1.3861e+02     2.5854     1.8039    63.7009   997.5550  0.000e+00
     -0.003    23.1027    23.1082    101.502  97.661537     -0.005     4.9662     58.025    8.55876    8.54031 1.4182e+02     2.5070     1.7916    63.8964   997.5550  0.000e+00
     -0.007    23.1023    23.1079    101.503  97.661537     -0.009     4.9612     57.965    8.55882    8.54037 1.2377e+02     2.5473     1.8146    63.5306   997.5551  0.000e+00
     -0.003    23.1023    23.1079    101.693  97.844743     -0.005     4.9552     57.895    8.55882    8.54037 1.2225e+02     2.5579     1.7950    63.8431   997.5552  0.000e+00
     -0.004    23.1019    23.1074    101.504  97.661537     -0.006     4.9467     57.796    8.55889    8.54044 1.2952e+02     2.5642     1.7934    63.8682   997.5552  0.000e+00
     -0.003    23.1014    23.1069    101.600  97.753140     -0.005     4.9418     57.738    8.55897    8.54053 1.4411e+02     2.5770     1.8180    63.4759   997.5554  0.000e+00
     -0.007    23.1007    23.1063    101.760  97.905813     -0.009     4.9346     57.654    8.55907    8.54062 1.2563e+02     2.5536     1.8025    63.7231   997.5556  0.000e+00
     -0.003    23.1004    23.1059    101.761  97.905813     -0.005     4.9268     57.562    8.55913    8.54068 1.2731e+02     2.4413     1.7990    63.7794   997.5557  0.000e+00
     -0.007    23.1002    23.1058    101.761  97.905813     -0.009     4.9251     57.542    8.55915    8.54071 1.2349e+02     2.3925     1.7925    63.8830   997.5557  0.000e+00
     -0.004    23.0999    23.1054    101.762  97.905813     -0.006     4.9146     57.418    8.55921    8.54076 1.3715e+02     2.3056     1.8060    63.6669   997.5558  0.000e+00
     -0.004    23.0996    23.1051    101.858  97.997417     -0.006     4.9076     57.337    8.55925    8.54081 1.3276e+02     2.4286     1.7992    63.7749   997.5559  0.000e+00
     -0.003    23.0993    23.1048    102.112  98.241697     -0.005     4.9080     57.341    8.55930    8.54086 1.2394e+02     2.4625     1.7802    64.0800   997.5561  0.000e+00
     -0.004    23.0989    23.1044    101.954  98.089022     -0.006     4.9023     57.274    8.55936    8.54092 1.5885e+02     2.4689     1.7884    63.9482   997.5561  0.000e+00
     -0.003    23.0990    23.1045    102.113  98.241697     -0.005     4.8925     57.159    8.55935    8.54090 1.4514e+02     2.5049     1.7909    63.9082   997.5561  0.000e+00
     -0.001    23.0988    23.1044    102.621  98.730265     -0.002     4.8861     57.085    8.55936    8.54092 1.3870e+02     2.4816     1.7991    63.7779   997.5564  0.000e+00
     -0.000    23.0989    23.1044    102.621  98.730265     -0.000     4.8814     57.030    8.55935    8.54090 1.5704e+02     2.4816     1.8013    63.7424   997.5563  0.000e+00
      0.002    23.0986    23.1042    102.113  98.241697      0.003     4.8724     56.925    8.55940    8.54096 1.3445e+02     2.5049     1.8144    63.5336   997.5562  0.000e+00
      0.008    23.0983    23.1038    101.892  98.027953      0.011     4.8627     56.811    8.55946    8.54102 1.2772e+02     2.4773     1.8113    63.5825   997.5563  0.000e+00
      0.016    23.0980    23.1036    101.766  97.905814      0.023     4.8554     56.725    8.55951    8.54106 1.2440e+02     2.4710     1.8042    63.6965   997.5563  0.000e+00
      0.020    23.0977    23.1032    102.020  98.150092      0.028     4.8486     56.646    8.55956    8.54111 1.3956e+02     2.4858     1.7927    63.8801   997.5565  0.000e+00
      0.025    23.0970    23.1025    102.022  98.150093      0.036     4.8494     56.654    8.55967    8.54123 1.3693e+02     2.5240     1.7753    64.1584   997.5567  0.000e+00
      0.026    23.0963    23.1018    102.309  98.424910      0.037     4.8483     56.640    8.55978    8.54134 1.3778e+02     2.5558     1.7970    63.8105   997.5570  0.000e+00
      0.031    23.0957    23.1012    102.025  98.150093      0.044     4.8509     56.670    8.55989    8.54144 1.2763e+02     2.5600     1.7939    63.8608   997.5570  0.000e+00
      0.037    23.0954    23.1009    102.311  98.424910      0.053     4.8499     56.658    8.55992    8.54148 1.4120e+02     2.6300     1.7814    64.0592   997.5572  0.000e+00
      0.042    23.0950    23.1006    101.772  97.905815      0.059     4.8545     56.711    8.55999    8.54155 1.2993e+02     2.7741     1.8048    63.6861   997.5571  0.000e+00
      0.041    23.0948    23.1003    103.487  99.554751      0.058     4.8540     56.706    8.56000    8.54155 1.4688e+02     2.7466     1.7867    63.9748   997.5578  0.000e+00
      0.035    23.0944    23.1000    105.551 101.539761      0.050     4.8508     56.668    8.56001    8.54156 1.1926e+02     2.6766     1.7783    64.1096   997.5586  0.000e+00
      0.030    23.0952    23.1008    107.359 103.280622      0.042     4.8434     56.583    8.55984    8.54140 1.4257e+02     2.6384     1.7865    63.9778   997.5590  0.000e+00
      0.032    23.0961    23.1016    106.245 102.211654      0.045     4.8312     56.441    8.55972    8.54128 1.3356e+02     2.5558     1.7917    63.8949   997.5584  0.000e+00
      0.035    23.0964    23.1019    104.277 100.318193      0.050     4.8170     56.275    8.55972    8.54128 1.2860e+02     2.4625     1.7790    64.0977   997.5577  0.000e+00
      0.043    23.0961    23.1016    102.563  98.669194      0.061     4.7970     56.041    8.55980    8.54136 1.4124e+02     2.4477     1.7761    64.1451   997.5572  0.000e+00
      0.053    23.0950    23.1005    103.486  99.554751      0.075     4.7888     55.944    8.55997    8.54152 1.2332e+02     2.4943     1.7951    63.8416   997.5578  0.000e+00
      0.053    23.0943    23.0999    106.059 102.028409      0.075     4.7822     55.867    8.56001    8.54157 1.4260e+02     2.5812     1.8193    63.4566   997.5588  0.000e+00
      0.050    23.0936    23.0992    107.775 103.677683      0.072     4.7871     55.924    8.56009    8.54164 1.1213e+02     2.5240     1.7928    63.8771   997.5596  0.000e+00
      0.056    23.0934    23.0989    105.902 101.875706      0.080     4.7918     55.978    8.56017    8.54173 1.3959e+02     2.4964     1.8073    63.6461   997.5590  0.000e+00
      0.060    23.0929    23.0985    105.935 101.906246      0.086     4.7841     55.887    8.56024    8.54180 1.2664e+02     2.5621     1.7853    63.9970   997.5592  0.000e+00
      0.065    23.0922    23.0977    107.778 103.677683      0.092     4.7859     55.908    8.56033    8.54188 1.3472e+02     2.5833     1.7874    63.9645   997.5600  0.000e+00
      0.069    23.0909    23.0965    106.257 102.211656      0.098     4.7804     55.843    8.56056    8.54212 1.3383e+02     2.6766     1.8150    63.5247   997.5598  0.000e+00
      0.077    23.0897    23.0953    106.672 102.608695      0.109     4.7775     55.807    8.56075    8.54231 1.3273e+02     2.6490     1.8060    63.6669   997.5602  0.000e+00
      0.079    23.0886    23.0941    106.262 102.211657      0.112     4.7659     55.670    8.56094    8.54250 1.3020e+02     2.5176     1.7871    63.9689   997.5604  0.000e+00
      0.083    23.0874    23.0929    107.535 103.433340      0.119     4.7562     55.555    8.56111    8.54267 1.3071e+02     2.4710     1.7763    64.1421   997.5611  0.000e+00
      0.086    23.0860    23.0916    109.602 105.418732      0.122     4.7463     55.439    8.56128    8.54284 1.3104e+02     2.5324     1.7983    63.7898   997.5622  0.000e+00
      0.082    23.0835    23.0890    112.689 108.381911      0.117     4.7349     55.304    8.56162    8.54319 1.3469e+02     2.5452     1.7897    63.9275   997.5638  0.000e+00
      0.080    23.0781    23.0836    113.464 109.115138      0.114     4.7269     55.205    8.56249    8.54405 1.4049e+02     2.5706     1.7778    64.1185   997.5654  0.000e+00
      0.080    23.0721    23.0777    113.986 109.603971      0.114     4.7133     55.040    8.56344    8.54501 1.2309e+02     2.7211     1.7849    64.0044   997.5670  0.000e+00
      0.082    23.0673    23.0729    113.934 109.542868      0.117     4.7002     54.881    8.56422    8.54579 1.4260e+02     2.7487     1.7952    63.8401   997.5681  0.000e+00
      0.082    23.0627    23.0682    113.755 109.359558      0.117     4.6862     54.713    8.56498    8.54655 1.2996e+02     2.7402     1.7825    64.0429   997.5691  0.000e+00
      0.085    23.0587    23.0642    114.718 110.276139      0.120     4.6715     54.538    8.56561    8.54719 1.2534e+02     2.7232     1.7882    63.9511   997.5704  0.000e+00
      0.085    23.0543    23.0598    116.190 111.681643      0.120     4.6630     54.434    8.56628    8.54786 1.3056e+02     2.7338     1.7801    64.0814   997.5720  0.000e+00
      0.082    23.0459    23.0514    117.069 112.506661      0.117     4.6570     54.356    8.56763    8.54921 1.3778e+02     2.7084     1.7890    63.9378   997.5743  0.000e+00
      0.079    23.0346    23.0402    117.701 113.087251      0.112     4.6482     54.242    8.56944    8.55104 1.3053e+02     2.7444     1.7864    63.9808   997.5771  0.000e+00
      0.078    23.0243    23.0299    117.217 112.598339      0.111     4.6388     54.121    8.57113    8.55273 1.3915e+02     2.6957     1.8105    63.5958   997.5794  0.000e+00
      0.080    23.0175    23.0231    115.834 111.253884      0.114     4.6347     54.067    8.57226    8.55387 1.3581e+02     2.7720     1.7951    63.8416   997.5805  0.000e+00
      0.086    23.0153    23.0209    115.680 111.101112      0.122     4.6333     54.048    8.57262    8.55423 1.2863e+02     2.7678     1.7883    63.9497   997.5810  0.000e+00
      0.083    23.0157    23.0212    116.888 112.262220      0.119     4.6358     54.077    8.57254    8.55415 1.4267e+02     2.6787     1.7838    64.0222   997.5814  0.000e+00
      0.083    23.0150    23.0205    117.844 113.178932      0.119     4.6331     54.045    8.57263    8.55424 1.3038e+02     2.6575     1.7971    63.8090   997.5819  0.000e+00
      0.081    23.0122    23.0177    119.315 114.584638      0.116     4.6327     54.038    8.57305    8.55466 1.2746e+02     2.6448     1.8153    63.5188   997.5830  0.000e+00
      0.080    23.0078    23.0134    120.440 115.654264      0.114     4.6358     54.070    8.57374    8.55535 1.4728e+02     2.5939     1.8108    63.5914   997.5844  0.000e+00
      0.079    23.0041    23.0096    117.871 113.178935      0.112     4.6385     54.097    8.57440    8.55602 1.1959e+02     2.6321     1.7923    63.8860   997.5844  0.000e+00
      0.083    23.0050    23.0105    100.596  96.592899      0.119     4.6493     54.222    8.57465    8.55626 1.3182e+02     2.5918     1.7806    64.0726   997.5783  0.000e+00
      0.085    23.0540    23.0596     98.269  94.455713      0.120     4.7041     54.911    8.56672    8.54831 1.3982e+02     2.6639     1.7957    63.8312   997.5659  0.000e+00
      0.087    23.1238    23.1293     97.778  94.119871      0.123     5.0704     59.265    8.55543    8.53696 1.3080e+02     2.6639     1.7808    64.0696   997.5492  0.000e+00
      0.085    23.1669    23.1725     97.532  93.967214      0.120     5.8089     67.953    8.54845    8.52996 1.3772e+02     2.6215     1.7876    63.9600   997.5388  0.000e+00
      0.085    23.1896    23.1952     97.486  93.967208      0.120     6.7156     78.593    8.54478    8.52627 1.3838e+02     2.6893     1.7790    64.0977   997.5333  0.000e+00
      0.083    23.2000    23.2055     97.465  93.967204      0.119     7.5941     88.891    8.54310    8.52459 1.2253e+02     2.6766     1.7795    64.0903   997.5309  0.000e+00
      0.083    23.2044    23.2099     97.298  93.814560      0.119     8.3653     97.927    8.54240    8.52388 1.5149e+02     2.5939     1.7797    64.0874   997.5298  0.000e+00
      0.081    23.2068    23.2124     97.293  93.814560      0.116     8.9857    105.194    8.54200    8.52349 1.3185e+02     2.7402     1.7874    63.9645   997.5292  0.000e+00
      0.086    23.2084    23.2140     97.290  93.814559      0.122     9.4079    110.140    8.54175    8.52323 1.3482e+02     2.7550     1.8002    63.7601   997.5288  0.000e+00
      0.083    23.2096    23.2152     97.256  93.784030      0.119     9.6045    112.445    8.54155    8.52303 1.4428e+02     2.6151     1.7942    63.8549   997.5285  0.000e+00
      0.085    23.2103    23.2158     97.191  93.722974      0.120     9.5875    112.246    8.54145    8.52293 1.3889e+02     2.6130     1.7939    63.8608   997.5283  0.000e+00
      0.085    23.2099    23.2155     97.287  93.814559      0.120     9.4288    110.388    8.54150    8.52299 1.4571e+02     2.6321     1.8308    63.2745   997.5284  0.000e+00
      0.083    23.2099    23.2155     97.192  93.722974      0.119     9.2369    108.141    8.54151    8.52299 1.1815e+02     2.5515     1.8104    63.5973   997.5284  0.000e+00
      0.085    23.2096    23.2152     97.192  93.722974      0.120     9.0492    105.944    8.54155    8.52303 1.5229e+02     2.6554     1.7816    64.0563   997.5285  0.000e+00
      0.086    23.2092    23.2148     97.193  93.722974      0.122     8.8931    104.115    8.54162    8.52310 1.2072e+02     2.7826     1.8193    63.4551   997.5286  0.000e+00
      0.088    23.2094    23.2149     97.193  93.722974      0.125     8.7661    102.628    8.54159    8.52308 1.4755e+02     2.7466     1.7953    63.8371   997.5285  0.000e+00
      0.087    23.2094    23.2149     97.098  93.631389      0.123     8.6661    101.458    8.54159    8.52308 1.4654e+02     2.7084     1.7947    63.8475   997.5285  0.000e+00
      0.086    23.2095    23.2150     97.098  93.631389      0.122     8.5898    100.565    8.54158    8.52306 1.2834e+02     2.6702     1.8088    63.6224   997.5285  0.000e+00
      0.086    23.2090    23.2146     97.194  93.722974      0.122     8.5354     99.927    8.54165    8.52313 1.4850e+02     2.7063     1.8089    63.6210   997.5286  0.000e+00
      0.083    23.2088    23.2144     97.194  93.722974      0.119     8.4942     99.444    8.54168    8.52316 1.3362e+02     2.6533     1.7872    63.9674   997.5286  0.000e+00
      0.083    23.2089    23.2145     97.194  93.722974      0.119     8.4678     99.136    8.54166    8.52315 1.3851e+02     2.6957     1.7996    63.7690   997.5286  0.000e+00
      0.088    23.2090    23.2146     97.194  93.722974      0.125     8.4490     98.916    8.54165    8.52313 1.3581e+02     2.6575     1.8138    63.5440   997.5286  0.000e+00
      0.086    23.2088    23.2144     97.099  93.631390      0.122     8.4334     98.732    8.54168    8.52316 1.4956e+02     2.6596     1.8084    63.6284   997.5286  0.000e+00
      0.086    23.2084    23.2140     97.100  93.631390      0.122     8.4220     98.598    8.54175    8.52323 1.2910e+02     2.6724     1.8374    63.1694   997.5287  0.000e+00
      0.085    23.2084    23.2140     97.195  93.722974      0.120     8.4092     98.448    8.54175    8.52323 1.5122e+02     2.7402     1.8116    63.5780   997.5288  0.000e+00
      0.087    23.2085    23.2141     97.195  93.722974      0.123     8.3976     98.312    8.54173    8.52322 1.4527e+02     2.7190     1.8006    63.7527   997.5287  0.000e+00
      0.083    23.2086    23.2142     97.099  93.631390      0.119     8.3847     98.162    8.54172    8.52321 1.3285e+02     2.7784     1.8654    62.7281   997.5287  0.000e+00
      0.085    23.2089    23.2145     97.194  93.722974      0.120     8.3818     98.128    8.54166    8.52315 1.4052e+02     2.7593     1.8071    63.6491   997.5286  0.000e+00
      0.086    23.2090    23.2146     97.099  93.631390      0.122     8.3805     98.113    8.54165    8.52313 1.3164e+02     2.7784     1.7968    63.8134   997.5286  0.000e+00
      0.085    23.2088    23.2144     97.194  93.722974      0.120     8.3921     98.249    8.54168    8.52316 1.3531e+02     2.8314     1.7967    63.8149   997.5287  0.000e+00
      0.086    23.2088    23.2144     97.194  93.722974      0.122     8.3954     98.288    8.54168    8.52316 1.5658e+02     2.8398     1.7951    63.8416   997.5287  0.000e+00
      0.087    23.2092    23.2148     97.193  93.722974      0.123     8.4018     98.363    8.54162    8.52310 1.3337e+02     2.7953     1.7973    63.8060   997.5286  0.000e+00
      0.087    23.2097    23.2153     97.192  93.722974      0.123     8.4114     98.477    8.54154    8.52302 1.4584e+02     2.7444     1.8301    63.2849   997.5285  0.000e+00
      0.087    23.2096    23.2152     97.097  93.631389      0.123     8.4159     98.529    8.54155    8.52303 1.4267e+02     2.8250     1.8000    63.7631   997.5284  0.000e+00
      0.088    23.2097    23.2153     97.192  93.722974      0.125     8.4173     98.546    8.54154    8.52302 1.4681e+02     2.7678     1.7848    64.0059   997.5285  0.000e+00
      0.087    23.2101    23.2156     97.191  93.722974      0.123     8.4119     98.482    8.54148    8.52296 1.3485e+02     2.7847     1.8024    63.7246   997.5284  0.000e+00
      0.085    23.2100    23.2156     97.192  93.722974      0.120     8.4100     98.460    8.54149    8.52298 1.6046e+02     2.8356     1.7869    63.9719   997.5284  0.000e+00
      0.085    23.2102    23.2157     97.286  93.814559      0.120     8.4073     98.429    8.54146    8.52295 1.4240e+02     2.8907     1.8175    63.4847   997.5284  0.000e+00
      0.087    23.2103    23.2159     97.191  93.722974      0.123     8.4071     98.427    8.54144    8.52292 1.3417e+02     2.8568     1.8323    63.2493   997.5283  0.000e+00
      0.088    23.2107    23.2163     97.190  93.722974      0.125     8.4107     98.470    8.54138    8.52286 1.5334e+02     2.9204     1.7989    63.7809   997.5282  0.000e+00
      0.086    23.2105    23.2161     97.191  93.722974      0.122     8.4125     98.490    8.54141    8.52289 1.3460e+02     2.9162     1.8399    63.1294   997.5283  0.000e+00
      0.085    23.2106    23.2162     97.095  93.631389      0.120     8.4139     98.507    8.54140    8.52288 1.3255e+02     2.8398     1.8097    63.6091   997.5282  0.000e+00
      0.089    23.2103    23.2159     97.191  93.722974      0.126     8.4141     98.509    8.54144    8.52292 1.5373e+02     2.8335     1.8190    63.4611   997.5283  0.000e+00
      0.089    23.2100    23.2156     97.192  93.722974      0.126     8.4129     98.495    8.54149    8.52298 1.4111e+02     2.8462     1.8004    63.7557   997.5284  0.000e+00
      0.088    23.2102    23.2157     97.096  93.631389      0.125     8.4131     98.497    8.54147    8.52295 1.3905e+02     2.8420     1.7824    64.0444   997.5283  0.000e+00
      0.091    23.2102    23.2157     97.096  93.631389      0.130     8.4175     98.548    8.54147    8.52295 1.5289e+02     2.9098     1.7993    63.7735   997.5283  0.000e+00
      0.090    23.2102    23.2157     97.255  93.784030      0.128     8.4208     98.588    8.54146    8.52295 1.5087e+02     2.9458     1.8217    63.4181   997.5284  0.000e+00
      0.091    23.2099    23.2155     97.097  93.631389      0.130     8.4254     98.640    8.54151    8.52299 1.4007e+02     2.9628     1.8190    63.4611   997.5284  0.000e+00
      0.093    23.2096    23.2152     97.097  93.631389      0.133     8.4335     98.735    8.54155    8.52303 1.6634e+02     2.9819     1.8241    63.3796   997.5285  0.000e+00
      0.090    23.2096    23.2151     97.098  93.631389      0.128     8.4341     98.742    8.54157    8.52305 1.4283e+02     2.9819     1.7968    63.8134   997.5285  0.000e+00
      0.086    23.2096    23.2151     97.098  93.631389      0.122     8.4241     98.625    8.54157    8.52305 1.5011e+02     2.8907     1.8076    63.6417   997.5285  0.000e+00
      0.085    23.2096    23.2152     97.002  93.539805      0.120     8.4128     98.492    8.54155    8.52304 1.4467e+02     2.9861     1.8129    63.5573   997.5284  0.000e+00
      0.087    23.2095    23.2150     97.193  93.722974      0.123     8.4123     98.487    8.54158    8.52306 1.4088e+02     3.0094     1.8428    63.0835   997.5285  0.000e+00
      0.089    23.2095    23.2150     97.098  93.631389      0.126     8.4067     98.421    8.54158    8.52306 1.4854e+02     3.0900     1.8160    63.5084   997.5285  0.000e+00
      0.085    23.2091    23.2147     97.193  93.722974      0.120     8.4067     98.420    8.54163    8.52312 1.5042e+02     3.0137     1.8007    63.7513   997.5286  0.000e+00
      0.086    23.2087    23.2142     97.099  93.631390      0.122     8.4123     98.485    8.54171    8.52319 1.5063e+02     2.9204     1.8050    63.6831   997.5287  0.000e+00
      0.088    23.2081    23.2136     97.101  93.631390      0.125     8.4123     98.484    8.54181    8.52329 1.6054e+02     2.8568     1.8019    63.7320   997.5288  0.000e+00
      0.088    23.2076    23.2132     97.196  93.722975      0.125     8.4168     98.535    8.54188    8.52336 1.3693e+02     2.7720     1.7959    63.8283   997.5290  0.000e+00
      0.087    23.2074    23.2130     97.102  93.631390      0.123     8.4216     98.591    8.54191    8.52339 1.4577e+02     2.6957     1.8040    63.6994   997.5290  0.000e+00
      0.087    23.2073    23.2128     97.102  93.631390      0.123     8.4217     98.593    8.54193    8.52342 1.5929e+02     2.7635     1.8094    63.6136   997.5290  0.000e+00
      0.088    23.2072    23.2127     97.102  93.631390      0.125     8.4154     98.518    8.54195    8.52343 1.4438e+02     2.7847     1.8014    63.7409   997.5290  0.000e+00
      0.088    23.2073    23.2128     97.007  93.539806      0.125     8.4133     98.494    8.54194    8.52342 1.5419e+02     2.8123     1.7839    64.0193   997.5290  0.000e+00
      0.088    23.2070    23.2126     97.103  93.631390      0.125     8.4199     98.571    8.54198    8.52346 1.5039e+02     2.8059     1.7996    63.7690   997.5291  0.000e+00
      0.088    23.2070    23.2126     97.103  93.631390      0.125     8.4246     98.626    8.54198    8.52346 1.3725e+02     2.8738     1.7982    63.7912   997.5291  0.000e+00
      0.088    23.2070    23.2126     97.198  93.722975      0.125     8.4284     98.671    8.54197    8.52346 1.5384e+02     2.8059     1.8169    63.4936   997.5291  0.000e+00
      0.086    23.2073    23.2128     97.165  93.692446      0.122     8.4307     98.698    8.54193    8.52342 1.5384e+02     2.7444     1.7857    63.9911   997.5290  0.000e+00
      0.083    23.2069    23.2125     97.198  93.722975      0.119     8.4311     98.702    8.54199    8.52347 1.5170e+02     2.6681     1.7954    63.8357   997.5291  0.000e+00
      0.086    23.2076    23.2132     97.196  93.722975      0.122     8.4326     98.721    8.54188    8.52336 1.5729e+02     2.6787     1.7820    64.0503   997.5290  0.000e+00
      0.086    23.2086    23.2142     97.099  93.631390      0.122     8.4338     98.737    8.54172    8.52321 1.3819e+02     2.7084     1.7825    64.0429   997.5287  0.000e+00
      0.083    23.2091    23.2147     97.098  93.631389      0.119     8.4324     98.721    8.54164    8.52312 1.5704e+02     2.7381     1.7956    63.8327   997.5286  0.000e+00
      0.089    23.2097    23.2153     97.097  93.631389      0.126     8.4263     98.651    8.54154    8.52302 1.2528e+02     2.6554     1.7856    63.9926   997.5284  0.000e+00
      0.097    23.2100    23.2156     97.097  93.631389      0.137     8.4160     98.531    8.54149    8.52298 1.4970e+02     2.6914     1.7815    64.0577   997.5284  0.000e+00
      0.108    23.2089    23.2145     97.004  93.539806      0.153     8.4024     98.369    8.54167    8.52315 1.3823e+02     2.6978     1.7841    64.0163   997.5287  0.000e+00
      0.112    23.2076    23.2132     97.101  93.631390      0.159     8.4006     98.346    8.54188    8.52336 1.4309e+02     2.7508     1.7901    63.9215   997.5290  0.000e+00
      0.116    23.2067    23.2122     97.008  93.539806      0.166     8.3999     98.336    8.54204    8.52352 1.4571e+02     2.7423     1.7891    63.9363   997.5293  0.000e+00
      0.131    23.2064    23.2120     97.104  93.631391      0.186     8.4033     98.376    8.54208    8.52356 1.3559e+02     2.7890     1.7842    64.0148   997.5294  0.000e+00
      0.149    23.2060    23.2116     97.010  93.539807      0.212     8.4105     98.459    8.54214    8.52362 1.3331e+02     2.7720     1.8029    63.7172   997.5295  0.000e+00
      0.157    23.2055    23.2111     97.106  93.631391      0.223     8.4141     98.500    8.54222    8.52370 1.4224e+02     2.7254     1.8054    63.6772   997.5297  0.000e+00
      0.150    23.2047    23.2103     97.012  93.539807      0.214     8.4176     98.540    8.54235    8.52383 1.4391e+02     2.7635     1.7923    63.8860   997.5299  0.000e+00
      0.134    23.2043    23.2099     97.203  93.722976      0.191     8.4229     98.601    8.54241    8.52390 1.3304e+02     2.7126     1.8086    63.6254   997.5300  0.000e+00
      0.120    23.2048    23.2104     97.012  93.539807      0.170     8.4263     98.642    8.54233    8.52382 1.6680e+02     2.7614     1.8041    63.6980   997.5297  0.000e+00
      0.117    23.2054    23.2110     97.106  93.631391      0.167     8.4257     98.636    8.54223    8.52372 1.2961e+02     2.6278     1.7938    63.8623   997.5296  0.000e+00
      0.127    23.2062    23.2118     97.199  93.722975      0.181     8.4173     98.539    8.54210    8.52359 1.4810e+02     2.5261     1.8068    63.6550   997.5295  0.000e+00
      0.147    23.2070    23.2126     97.198  93.722975      0.209     8.4058     98.406    8.54197    8.52346 1.3556e+02     2.6024     1.7978    63.7972   997.5294  0.000e+00
      0.168    23.2068    23.2124     97.166  93.692447      0.239     8.3997     98.334    8.54200    8.52349 1.3472e+02     2.5367     1.7935    63.8667   997.5295  0.000e+00
      0.178    23.2055    23.2111     97.106  93.631391      0.253     8.4002     98.338    8.54222    8.52370 1.3690e+02     2.6512     1.7901    63.9201   997.5298  0.000e+00
      0.172    23.2046    23.2102     97.012  93.539807      0.245     8.4091     98.440    8.54236    8.52385 1.4461e+02     2.7020     1.8014    63.7409   997.5300  0.000e+00
      0.156    23.2044    23.2099     97.108  93.631392      0.222     8.4146     98.504    8.54240    8.52389 1.4296e+02     2.6702     1.8063    63.6624   997.5300  0.000e+00
      0.147    23.2051    23.2106     97.202  93.722976      0.209     8.4217     98.589    8.54229    8.52377 1.5056e+02     2.6363     1.8171    63.4907   997.5298  0.000e+00
      0.145    23.2059    23.2114     97.105  93.631391      0.206     8.4251     98.630    8.54216    8.52365 1.4810e+02     2.6893     1.8146    63.5306   997.5296  0.000e+00
      0.155    23.2070    23.2126     97.198  93.722975      0.220     8.4306     98.696    8.54197    8.52346 1.3934e+02     2.7232     1.8171    63.4907   997.5294  0.000e+00
      0.163    23.2068    23.2124     97.103  93.631391      0.231     8.4363     98.762    8.54201    8.52349 1.4772e+02     2.7020     1.8194    63.4537   997.5294  0.000e+00
      0.169    23.2054    23.2110     97.011  93.539807      0.241     8.4407     98.811    8.54223    8.52372 1.2787e+02     2.7105     1.8324    63.2478   997.5298  0.000e+00
      0.168    23.2046    23.2102     97.107  93.631392      0.239     8.4362     98.757    8.54236    8.52385 1.3104e+02     2.8186     1.7825    64.0429   997.5300  0.000e+00
      0.156    23.2043    23.2099     97.108  93.631392      0.222     8.4273     98.653    8.54242    8.52390 1.5590e+02     2.8186     1.7747    64.1673   997.5300  0.000e+00
      0.092    23.2047    23.2103     97.107  93.631391      0.131     8.4257     98.635    8.54235    8.52383 1.6294e+02     2.8186     1.8046    63.6891   997.5296  0.000e+00
     -0.011    23.2056    23.2112     97.105  93.631390     -0.016     8.4222     98.595    8.54220    8.52369 1.6501e+02     2.5112     1.8214    63.4226   997.5290  0.000e+00
     -0.098    23.2064    23.2120     97.199  93.722973     -0.139     8.4109     98.465    8.54207    8.52356 1.8559e+02     4.5506     1.8290    63.3026   997.5284  0.000e+00
     -0.150    23.2068    23.2124     97.705  94.211431     -0.213     8.3953     98.283    8.54199    8.52348 1.6573e+02     4.6248     1.8240    63.3811   997.5283  0.000e+00
     -0.166    23.2066    23.2121     97.357  93.875614     -0.236     8.3925     98.249    8.54204    8.52353 1.8085e+02     3.6178     1.8140    63.5395   997.5281  0.000e+00
     -0.164    23.2065    23.2120     97.199  93.722973     -0.233     8.4002     98.339    8.54206    8.52355 1.6664e+02     3.0857     1.8143    63.5351   997.5281  0.000e+00
     -0.156    23.2059    23.2115     97.105  93.631388     -0.222     8.4038     98.381    8.54215    8.52363 1.5412e+02     2.6321     1.8221    63.4107   997.5282  0.000e+00
     -0.139    23.2053    23.2109     97.169  93.692445     -0.197     8.4119     98.474    8.54225    8.52373 1.5885e+02     2.0724     1.8320    63.2552   997.5285  0.000e+00
     -0.110    23.2045    23.2100     97.108  93.631389     -0.156     8.4135     98.491    8.54239    8.52387 1.5708e+02     2.2505     1.7919    63.8919   997.5288  0.000e+00
     -0.074    23.2039    23.2095     97.109  93.631390     -0.105     8.4172     98.534    8.54247    8.52396 1.1926e+02     2.2971     1.8039    63.7009   997.5291  0.000e+00
     -0.047    23.2030    23.2085     97.016  93.539806     -0.067     8.4132     98.484    8.54263    8.52412 1.2705e+02     2.3311     1.7997    63.7675   997.5294  0.000e+00
     -0.028    23.2023    23.2078     97.112  93.631391     -0.039     8.4133     98.485    8.54274    8.52423 1.5250e+02     2.2611     1.8089    63.6210   997.5297  0.000e+00
     -0.012    23.2023    23.2078     97.017  93.539807     -0.017     8.3973     98.297    8.54275    8.52423 1.5654e+02     2.4392     1.8054    63.6772   997.5297  0.000e+00
     -0.003    23.2023    23.2079     96.954  93.478751     -0.005     8.3723     98.005    8.54273    8.52422 1.4514e+02     2.8038     1.8116    63.5780   997.5297  0.000e+00
     -0.002    23.2023    23.2078     97.112  93.631391     -0.003     8.3538     97.789    8.54274    8.52423 1.5415e+02     2.6194     1.8358    63.1945   997.5298  0.000e+00
     -0.004    23.2020    23.2076     97.018  93.539807     -0.006     8.3395     97.620    8.54279    8.52428 1.6276e+02     2.6384     1.8254    63.3589   997.5298  0.000e+00
     -0.001    23.2018    23.2074     97.113  93.631391     -0.002     8.3363     97.582    8.54281    8.52430 1.4762e+02     2.6066     1.8155    63.5158   997.5299  0.000e+00
      0.015    23.2018    23.2074     97.018  93.539807      0.022     8.3392     97.617    8.54282    8.52430 1.3950e+02     2.5812     1.8065    63.6595   997.5300  0.000e+00
      0.025    23.2016    23.2072     97.018  93.539807      0.036     8.3502     97.745    8.54284    8.52433 1.4627e+02     2.6024     1.8017    63.7365   997.5300  0.000e+00
      0.021    23.2016    23.2071     97.019  93.539807      0.030     8.3573     97.827    8.54286    8.52435 1.5486e+02     2.5897     1.8046    63.6891   997.5300  0.000e+00
      0.006    23.2018    23.2074     97.018  93.539807      0.009     8.3646     97.914    8.54282    8.52430 1.5766e+02     2.7360     1.7921    63.8890   997.5299  0.000e+00
     -0.004    23.2018    23.2074     97.018  93.539807     -0.006     8.3635     97.902    8.54282    8.52430 1.5611e+02     2.6469     1.8042    63.6965   997.5299  0.000e+00
      0.001    23.2017    23.2073     96.955  93.478751      0.001     8.3538     97.787    8.54283    8.52432 1.5021e+02     2.6215     1.8051    63.6817   997.5299  0.000e+00
      0.039    23.2019    23.2075     97.018  93.539807      0.056     8.3497     97.740    8.54280    8.52429 1.4094e+02     2.6194     1.8028    63.7187   997.5300  0.000e+00
      0.092    23.2024    23.2080     97.017  93.539807      0.131     8.3414     97.643    8.54272    8.52420 1.3813e+02     2.2251     1.8074    63.6447   997.5302  0.000e+00
      0.125    23.2028    23.2084     97.111  93.631392      0.178     8.3454     97.691    8.54266    8.52415 1.4179e+02     2.5155     1.8010    63.7468   997.5303  0.000e+00
      0.139    23.2025    23.2081     97.017  93.539808      0.198     8.3572     97.829    8.54270    8.52419 1.3122e+02     2.3544     1.8038    63.7024   997.5303  0.000e+00
      0.145    23.2022    23.2077     97.017  93.539808      0.206     8.3663     97.934    8.54276    8.52425 1.3725e+02     2.3544     1.8097    63.6091   997.5305  0.000e+00
      0.157    23.2021    23.2077     97.018  93.539808      0.223     8.3799     98.093    8.54277    8.52426 1.3537e+02     2.4074     1.8094    63.6136   997.5305  0.000e+00
      0.178    23.2016    23.2072     97.113  93.631393      0.253     8.3835     98.135    8.54284    8.52433 1.3690e+02     2.6024     1.8186    63.4670   997.5308  0.000e+00
      0.209    23.2015    23.2070     96.956  93.478753      0.297     8.3923     98.238    8.54287    8.52436 1.3273e+02     2.5642     1.8060    63.6669   997.5309  0.000e+00
      0.228    23.1995    23.2051     97.023  93.539810      0.325     8.3884     98.188    8.54318    8.52467 1.4169e+02     2.5218     1.8110    63.5884   997.5315  0.000e+00
      0.236    23.1992    23.2048     97.023  93.539810      0.336     8.3831     98.126    8.54324    8.52473 1.1712e+02     2.5812     1.8305    63.2789   997.5316  0.000e+00
      0.247    23.2001    23.2056     97.117  93.631394      0.351     8.3779     98.066    8.54310    8.52459 1.4205e+02     2.4879     1.8253    63.3604   997.5314  0.000e+00
      0.262    23.2006    23.2062     97.021  93.539810      0.373     8.3785     98.074    8.54301    8.52450 1.2406e+02     2.4413     1.8039    63.7009   997.5314  0.000e+00
      0.297    23.2008    23.2063     97.020  93.539810      0.422     8.3775     98.063    8.54299    8.52447 1.1826e+02     2.5112     1.8192    63.4581   997.5315  0.000e+00
      0.359    23.2002    23.2058     97.116  93.631395      0.511     8.3721     97.999    8.54307    8.52456 1.1731e+02     2.3311     1.8164    63.5025   997.5319  0.000e+00
      0.451    23.1989    23.2045     97.024  93.539812      0.642     8.3735     98.013    8.54328    8.52477 1.0982e+02     3.7811     1.8207    63.4344   997.5326  0.000e+00
      0.534    23.1979    23.2034     97.026  93.539813      0.759     8.3721     97.995    8.54345    8.52494 1.0222e+02     3.3868     1.8109    63.5899   997.5332  0.000e+00
      0.596    23.1959    23.2014     96.967  93.478758      0.848     8.3743     98.016    8.54378    8.52527 1.0029e+02     3.4143     1.8049    63.6846   997.5340  0.000e+00
      0.639    23.1937    23.1993     97.034  93.539815      0.909     8.3805     98.085    8.54412    8.52561 9.8043e+01     3.2765     1.8031    63.7128   997.5347  0.000e+00
      0.665    23.1917    23.1973     96.975  93.478760      0.945     8.3878     98.166    8.54445    8.52594 9.6130e+01     3.1366     1.7970    63.8105   997.5352  0.000e+00
      0.682    23.1900    23.1955     96.979  93.478761      0.970     8.3918     98.210    8.54473    8.52623 9.8404e+01     3.0264     1.8011    63.7453   997.5357  0.000e+00
      0.694    23.1888    23.1944     97.044  93.539817      0.987     8.3885     98.169    8.54492    8.52641 9.4471e+01     2.9458     1.7997    63.7675   997.5361  0.000e+00
      0.704    23.1889    23.1945     97.044  93.539817      1.002     8.3861     98.142    8.54490    8.52640 9.4992e+01     2.9267     1.8238    63.3841   997.5361  0.000e+00
      0.729    23.1892    23.1947     96.980  93.478761      1.037     8.3837     98.115    8.54486    8.52636 9.2352e+01     2.8822     1.8112    63.5839   997.5361  0.000e+00
      0.756    23.1896    23.1952     97.043  93.539817      1.075     8.3847     98.126    8.54479    8.52628 9.2712e+01     2.8674     1.7961    63.8253   997.5362  0.000e+00
      0.770    23.1869    23.1925     97.048  93.539818      1.095     8.3899     98.182    8.54523    8.52672 9.2819e+01     2.8526     1.8172    63.4892   997.5369  0.000e+00
      0.763    23.1838    23.1894     97.054  93.539819      1.086     8.3978     98.269    8.54572    8.52722 9.3181e+01     3.0158     1.8026    63.7216   997.5376  0.000e+00
      0.752    23.1826    23.1882     96.993  93.478763      1.070     8.4005     98.298    8.54592    8.52742 9.4688e+01     3.0476     1.8034    63.7083   997.5378  0.000e+00
      0.743    23.1834    23.1890     97.055  93.539819      1.056     8.3934     98.216    8.54579    8.52729 9.3523e+01     2.9458     1.8263    63.3456   997.5376  0.000e+00
      0.743    23.1844    23.1899     97.053  93.539819      1.056     8.3856     98.127    8.54564    8.52714 9.3117e+01     2.9162     1.8015    63.7394   997.5374  0.000e+00
      0.771    23.1854    23.1910     97.146  93.631403      1.097     8.3881     98.158    8.54547    8.52696 8.8864e+01     2.8271     1.8238    63.3841   997.5373  0.000e+00
      0.816    23.1861    23.1917     96.986  93.478763      1.161     8.3770     98.030    8.54536    8.52685 8.4244e+01     2.8547     1.8368    63.1783   997.5373  0.000e+00
      0.869    23.1849    23.1904     97.147  93.631404      1.236     8.3712     97.960    8.54555    8.52705 8.5332e+01     2.7996     1.8172    63.4892   997.5378  0.000e+00
      0.919    23.1829    23.1884     96.993  93.478765      1.308     8.3787     98.043    8.54588    8.52738 8.1809e+01     2.7169     1.7815    64.0577   997.5385  0.000e+00
      0.958    23.1806    23.1861     97.061  93.539822      1.362     8.3787     98.039    8.54625    8.52775 7.8702e+01     2.7466     1.8075    63.6432   997.5392  0.000e+00
      0.991    23.1786    23.1841     97.065  93.539823      1.409     8.3864     98.126    8.54657    8.52808 7.9190e+01     2.7741     1.8185    63.4685   997.5399  0.000e+00
      1.029    23.1779    23.1834     97.066  93.539823      1.464     8.4016     98.302    8.54669    8.52819 7.6708e+01     2.8441     1.8273    63.3293   997.5402  0.000e+00
      1.081    23.1780    23.1836     97.066  93.539824      1.538     8.4091     98.391    8.54666    8.52816 7.4764e+01     2.8441     1.8197    63.4492   997.5404  0.000e+00
      1.139    23.1758    23.1814     97.007  93.478769      1.620     8.4177     98.487    8.54702    8.52852 7.2653e+01     2.8123     1.8058    63.6698   997.5412  0.000e+00
      1.200    23.1701    23.1757     97.019  93.478771      1.706     8.4228     98.536    8.54794    8.52945 7.0910e+01     2.8441     1.8022    63.7276   997.5428  0.000e+00
      1.252    23.1630    23.1686     97.096  93.539830      1.781     8.4168     98.452    8.54909    8.53060 6.8264e+01     2.8844     1.8376    63.1664   997.5447  0.000e+00
      1.314    23.1579    23.1635     96.980  93.417720      1.869     8.4078     98.338    8.54991    8.53143 6.7162e+01     2.8080     1.8004    63.7557   997.5462  0.000e+00
      1.378    23.1535    23.1590     97.052  93.478778      1.959     8.4050     98.297    8.55063    8.53215 6.4389e+01     2.7360     1.7964    63.8208   997.5476  0.000e+00
      1.436    23.1519    23.1575     97.119  93.539835      2.042     8.4008     98.245    8.55089    8.53241 6.3992e+01     2.8335     1.8359    63.1931   997.5482  0.000e+00
      1.479    23.1508    23.1564     97.121  93.539835      2.103     8.4069     98.314    8.55106    8.53258 6.4581e+01     2.8208     1.8093    63.6150   997.5487  0.000e+00
      1.512    23.1494    23.1550     97.124  93.539836      2.150     8.4136     98.390    8.55128    8.53280 6.1435e+01     2.8865     1.8004    63.7557   997.5492  0.000e+00
      1.547    23.1483    23.1539     97.063  93.478781      2.200     8.4044     98.280    8.55147    8.53299 5.9741e+01     2.8907     1.8089    63.6210   997.5496  0.000e+00
      1.582    23.1458    23.1514     97.068  93.478782      2.250     8.4018     98.245    8.55187    8.53339 5.9919e+01     2.8483     1.8228    63.4003   997.5503  0.000e+00
      1.608    23.1426    23.1482     96.979  93.387200      2.288     8.4023     98.245    8.55239    8.53392 5.9741e+01     2.9034     1.8101    63.6017   997.5512  0.000e+00
      1.644    23.1397    23.1453     96.985  93.387201      2.338     8.4019     98.235    8.55286    8.53439 5.9033e+01     2.9204     1.8220    63.4137   997.5520  0.000e+00
      1.672    23.1359    23.1415     97.088  93.478786      2.378     8.4016     98.224    8.55347    8.53500 5.8214e+01     2.9119     1.8093    63.6150   997.5531  0.000e+00
      1.700    23.1294    23.1349     97.006  93.387204      2.417     8.3943     98.127    8.55454    8.53607 5.7170e+01     2.9225     1.8505    62.9636   997.5547  0.000e+00
      1.736    23.1217    23.1272     97.116  93.478791      2.469     8.3922     98.089    8.55578    8.53732 5.6286e+01     2.8695     1.8255    63.3574   997.5568  0.000e+00
      1.771    23.1174    23.1229     97.030  93.387209      2.519     8.3847     97.993    8.55648    8.53802 5.6765e+01     2.8950     1.8198    63.4477   997.5579  0.000e+00
      1.804    23.1181    23.1236     97.124  93.478792      2.566     8.3768     97.901    8.55636    8.53790 5.6183e+01     2.9479     1.8056    63.6743   997.5579  0.000e+00
      1.834    23.1202    23.1257     97.024  93.387208      2.608     8.3714     97.842    8.55602    8.53756 5.5150e+01     2.8738     1.8104    63.5973   997.5575  0.000e+00
      1.864    23.1211    23.1266     97.022  93.387208      2.652     8.3790     97.933    8.55588    8.53742 5.3765e+01     2.8844     1.8215    63.4211   997.5574  0.000e+00
      1.896    23.1212    23.1268     97.022  93.387209      2.697     8.3844     97.996    8.55585    8.53739 5.3888e+01     2.9056     1.8260    63.3500   997.5575  0.000e+00
      1.934    23.1201    23.1256     97.024  93.387209      2.750     8.3992     98.167    8.55604    8.53758 5.2861e+01     2.9437     1.8396    63.1353   997.5580  0.000e+00
      1.976    23.1168    23.1224     97.031  93.387211      2.811     8.4157     98.354    8.55656    8.53811 5.2474e+01     3.0751     1.8511    62.9532   997.5589  0.000e+00
      2.014    23.1125    23.1180     96.976  93.326157      2.864     8.4296     98.508    8.55727    8.53882 5.2776e+01     2.9903     1.8347    63.2123   997.5601  0.000e+00
      2.049    23.1091    23.1147     96.951  93.295631      2.914     8.4428     98.657    8.55781    8.53936 5.1592e+01     3.0094     1.8509    62.9562   997.5611  0.000e+00
      2.074    23.1002    23.1058     96.906  93.234578      2.950     8.4415     98.625    8.55926    8.54081 5.1051e+01     2.9925     1.8564    62.8703   997.5633  0.000e+00
      2.090    23.0929    23.0985     97.079  93.387219      2.972     8.4435     98.634    8.56044    8.54199 5.1415e+01     3.0073     1.8368    63.1783   997.5652  0.000e+00
      2.098    23.0948    23.1003     96.980  93.295635      2.985     8.4399     98.595    8.56014    8.54170 5.1133e+01     2.9882     1.8461    63.0317   997.5647  0.000e+00
      2.114    23.0974    23.1030     96.975  93.295635      3.006     8.4321     98.509    8.55971    8.54127 5.1368e+01     2.9140     1.8352    63.2049   997.5642  0.000e+00
      2.125    23.0987    23.1043     97.067  93.387217      3.022     8.4221     98.395    8.55950    8.54105 5.2055e+01     2.9437     1.8492    62.9828   997.5639  0.000e+00
      2.144    23.0995    23.1051     96.971  93.295634      3.050     8.4061     98.210    8.55937    8.54093 5.0331e+01     2.9903     1.8319    63.2567   997.5638  0.000e+00
      2.174    23.0984    23.1039     96.973  93.295635      3.092     8.3928     98.052    8.55956    8.54111 5.0400e+01     2.9522     1.8226    63.4033   997.5642  0.000e+00
      2.208    23.0922    23.0977     96.922  93.234582      3.141     8.3687     97.759    8.56057    8.54212 4.9022e+01     2.9543     1.8265    63.3411   997.5658  0.000e+00
      2.239    23.0858    23.0913     96.998  93.295639      3.185     8.3303     97.299    8.56160    8.54316 4.8642e+01     2.8971     1.8318    63.2582   997.5675  0.000e+00
      2.268    23.0809    23.0864     96.945  93.234586      3.225     8.2737     96.629    8.56240    8.54396 4.9326e+01     2.8844     1.8249    63.3678   997.5688  0.000e+00
      2.312    23.0775    23.0830     97.110  93.387226      3.288     8.2081     95.856    8.56295    8.54451 4.7431e+01     2.9013     1.8230    63.3974   997.5698  0.000e+00
      2.374    23.0741    23.0797     96.958  93.234589      3.377     8.1661     95.360    8.56349    8.54506 4.6325e+01     2.9458     1.8274    63.3278   997.5709  0.000e+00
      2.433    23.0630    23.0686     96.981  93.234593      3.461     8.1488     95.138    8.56529    8.54687 4.6155e+01     2.9267     1.8072    63.6476   997.5738  0.000e+00
      2.482    23.0453    23.0508     96.921  93.143016      3.530     8.1479     95.095    8.56817    8.54976 4.5369e+01     3.0349     1.8143    63.5351   997.5782  0.000e+00
      2.527    23.0277    23.0333     97.052  93.234604      3.594     8.1588     95.190    8.57102    8.55262 4.5410e+01     3.0433     1.8084    63.6284   997.5826  0.000e+00
      2.561    23.0143    23.0198     96.984  93.143026      3.642     8.1730     95.332    8.57321    8.55482 4.4229e+01     2.9925     1.8062    63.6639   997.5859  0.000e+00
      2.587    23.0052    23.0107     97.002  93.143029      3.680     8.1673     95.249    8.57468    8.55630 4.3866e+01     2.9077     1.8282    63.3145   997.5882  0.000e+00
      2.607    22.9975    23.0031     97.050  93.173559      3.708     8.1690     95.255    8.57593    8.55755 4.3506e+01     2.8335     1.8322    63.2523   997.5901  0.000e+00
      2.628    22.9912    22.9967     96.872  92.990397      3.738     8.1578     95.113    8.57697    8.55859 4.4007e+01     2.8865     1.8178    63.4803   997.5916  0.000e+00
      2.648    22.9818    22.9873     96.954  93.051455      3.766     8.1429     94.922    8.57850    8.56013 4.4068e+01     2.9098     1.8111    63.5869   997.5940  0.000e+00
      2.671    22.9633    22.9688     96.928  92.990406      3.799     8.1411     94.868    8.58151    8.56315 4.3426e+01     2.9140     1.8324    63.2478   997.5984  0.000e+00
      2.700    22.9402    22.9457     96.879  92.898832      3.841     8.1474     94.899    8.58527    8.56693 4.2922e+01     2.9988     1.8381    63.1590   997.6040  0.000e+00
      2.730    22.9197    22.9252     96.921  92.898838      3.883     8.1646     95.063    8.58862    8.57029 4.1662e+01     3.2172     1.8255    63.3574   997.6090  0.000e+00
      2.753    22.9035    22.9090     96.953  92.898844      3.916     8.1871     95.296    8.59126    8.57294 4.2433e+01     3.1748     1.8301    63.2849   997.6129  0.000e+00
      2.774    22.8896    22.8951     96.886  92.807267      3.946     8.2102     95.539    8.59353    8.57522 4.1892e+01     3.2278     1.8399    63.1294   997.6163  0.000e+00
      2.797    22.8768    22.8823     96.912  92.807271      3.978     8.2370     95.828    8.59562    8.57731 4.1187e+01     3.2744     1.8767    62.5519   997.6194  0.000e+00
      2.816    22.8702    22.8757     96.925  92.807273      4.005     8.2677     96.173    8.59670    8.57840 4.1046e+01     3.2744     2.0555    59.8172   997.6211  0.000e+00
      2.833    22.8693    22.8748     97.023  92.898855      4.030     8.2990     96.535    8.59684    8.57854 4.1681e+01     3.2850     2.0622    59.7165   997.6214  0.000e+00
      2.854    22.8705    22.8759     96.925  92.807273      4.060     8.3111     96.678    8.59665    8.57835 4.1187e+01     3.2681     1.9870    60.8507   997.6212  0.000e+00
      2.877    22.8622    22.8677     96.782  92.654642      4.093     8.3099     96.650    8.59800    8.57971 4.0495e+01     3.3189     1.9765    61.0106   997.6232  0.000e+00
      2.898    22.8466    22.8521     96.814  92.654647      4.122     8.2927     96.420    8.60056    8.58227 3.9433e+01     3.3762     2.0437    59.9934   997.6270  0.000e+00
      2.920    22.8352    22.8407     96.837  92.654651      4.153     8.2834     96.291    8.60242    8.58414 4.0504e+01     3.4567     2.0944    59.2383   997.6297  0.000e+00
      2.936    22.8285    22.8340     96.946  92.746233      4.175     8.2735     96.164    8.60351    8.58524 3.9969e+01     3.4419     1.9424    61.5333   997.6314  0.000e+00
      2.953    22.8221    22.8276     96.959  92.746235      4.200     8.2531     95.916    8.60456    8.58629 3.9369e+01     3.4694     1.9710    61.0950   997.6330  0.000e+00
      2.972    22.8167    22.8222     97.034  92.807291      4.227     8.2192     95.512    8.60544    8.58717 3.9650e+01     3.5712     2.2663    56.7464   997.6344  0.000e+00
      2.997    22.8110    22.8165     96.981  92.746239      4.263     8.1902     95.165    8.60637    8.58811 3.9514e+01     3.5797     2.1151    58.9333   997.6358  0.000e+00
      3.021    22.8056    22.8111     96.992  92.746241      4.297     8.1824     95.064    8.60725    8.58900 3.8031e+01     3.5415     2.1776    58.0183   997.6372  0.000e+00
      3.049    22.8021    22.8076     97.000  92.746242      4.336     8.1894     95.139    8.60784    8.58958 3.7649e+01     3.7005     2.0414    60.0290   997.6382  0.000e+00
      3.072    22.8000    22.8055     96.812  92.563083      4.369     8.2018     95.279    8.60818    8.58993 3.7839e+01     3.7090     1.9915    60.7826   997.6387  0.000e+00
      3.085    22.7983    22.8037     96.912  92.654663      4.388     8.2116     95.389    8.60846    8.59021 3.8398e+01     3.7429     1.9892    60.8167   997.6392  0.000e+00
      3.100    22.7965    22.8020     96.915  92.654664      4.410     8.2329     95.635    8.60875    8.59049 3.7306e+01     3.7811     2.0001    60.6523   997.6397  0.000e+00
      3.120    22.7955    22.8010     97.013  92.746245      4.438     8.2683     96.043    8.60891    8.59066 3.7701e+01     3.7768     1.9235    61.8235   997.6400  0.000e+00
      3.141    22.7939    22.7994     96.825  92.563085      4.468     8.3070     96.490    8.60917    8.59092 3.7331e+01     3.8659     1.8800    62.5001   997.6404  0.000e+00
      3.174    22.7913    22.7968     96.926  92.654666      4.514     8.3296     96.748    8.60960    8.59135 3.7486e+01     3.8531     1.9062    62.0930   997.6412  0.000e+00
      3.205    22.7880    22.7934     97.028  92.746248      4.558     8.3397     96.859    8.61015    8.59190 3.6153e+01     3.9231     1.9058    62.0989   997.6422  0.000e+00
      3.246    22.7850    22.7905     97.034  92.746249      4.618     8.3492     96.964    8.61063    8.59239 3.5068e+01     3.9337     1.8987    62.2084   997.6431  0.000e+00
      3.312    22.7819    22.7874     96.945  92.654670      4.711     8.3474     96.937    8.61114    8.59290 3.4368e+01     4.0185     1.8782    62.5283   997.6440  0.000e+00
      3.364    22.7789    22.7843     96.951  92.654672      4.785     8.3426     96.876    8.61164    8.59340 3.4109e+01     4.1245     1.8690    62.6719   997.6450  0.000e+00
      3.385    22.7731    22.7785     96.963  92.654673      4.814     8.3379     96.810    8.61259    8.59436 3.3512e+01     4.2114     1.8813    62.4794   997.6464  0.000e+00
      3.397    22.7668    22.7723     96.975  92.654675      4.832     8.3125     96.504    8.61361    8.59538 3.4015e+01     4.3047     1.8870    62.3906   997.6480  0.000e+00
      3.411    22.7635    22.7689     96.982  92.654677      4.852     8.2612     95.902    8.61417    8.59594 3.2994e+01     4.4997     1.9015    62.1655   997.6488  0.000e+00
      3.429    22.7616    22.7671     96.890  92.563097      4.877     8.2335     95.577    8.61447    8.59624 3.3458e+01     4.5294     1.9007    62.1774   997.6493  0.000e+00
      3.445    22.7599    22.7654     96.798  92.471519      4.900     8.2006     95.193    8.61475    8.59653 3.3774e+01     4.6460     1.9065    62.0870   997.6497  0.000e+00
      3.457    22.7569    22.7623     96.900  92.563099      4.918     8.1731     94.868    8.61525    8.59702 3.3214e+01     4.7308     1.9449    61.4948   997.6505  0.000e+00
      3.467    22.7536    22.7590     96.938  92.593627      4.932     8.1550     94.652    8.61578    8.59756 3.2573e+01     4.9301     1.9536    61.3600   997.6514  0.000e+00
      3.488    22.7510    22.7565     96.912  92.563101      4.961     8.1615     94.722    8.61621    8.59799 3.3085e+01     5.1102     1.9973    60.6938   997.6521  0.000e+00
      3.534    22.7501    22.7556     96.913  92.563102      5.027     8.1924     95.080    8.61635    8.59813 3.1343e+01     5.1272     2.0288    60.2185   997.6525  0.000e+00
      3.577    22.7490    22.7545     96.916  92.563102      5.088     8.2348     95.569    8.61654    8.59832 3.1264e+01     5.2926     1.9655    61.1779   997.6529  0.000e+00
      3.615    22.7468    22.7523     97.016  92.654683      5.141     8.2785     96.073    8.61689    8.59867 3.0873e+01     5.4134     1.9785    60.9795   997.6536  0.000e+00
      3.647    22.7448    22.7502     96.924  92.563104      5.188     8.3065     96.394    8.61723    8.59902 3.0173e+01     5.3964     1.9743    61.0447   997.6542  0.000e+00
      3.682    22.7425    22.7480     96.833  92.471526      5.236     8.3328     96.695    8.61760    8.59939 3.0633e+01     5.4176     1.9703    61.1054   997.6549  0.000e+00
      3.705    22.7391    22.7446     96.936  92.563107      5.269     8.3636     97.046    8.61816    8.59994 3.0312e+01     5.3562     1.9364    61.6251   997.6558  0.000e+00
      3.728    22.7358    22.7412     96.943  92.563108      5.302     8.3825     97.260    8.61871    8.60050 3.0029e+01     5.2989     1.9730    61.0639   997.6567  0.000e+00
      3.752    22.7339    22.7393     96.946  92.563109      5.336     8.4031     97.494    8.61902    8.60081 2.9335e+01     5.3731     1.9717    61.0832   997.6573  0.000e+00
      3.769    22.7323    22.7378     96.950  92.563109      5.361     8.4047     97.510    8.61928    8.60107 2.9864e+01     5.3456     1.9442    61.5051   997.6577  0.000e+00
      3.788    22.7313    22.7367     96.856  92.471530      5.388     8.3966     97.415    8.61945    8.60124 2.9181e+01     5.2565     1.9344    61.6562   997.6580  0.000e+00
      3.811    22.7301    22.7355     96.794  92.410478      5.421     8.3892     97.327    8.61965    8.60144 2.9181e+01     5.1526     1.9637    61.2061   997.6584  0.000e+00
      3.833    22.7256    22.7310     96.867  92.471532      5.452     8.3828     97.244    8.62039    8.60218 2.8901e+01     5.1357     1.9711    61.0935   997.6595  0.000e+00
      3.849    22.7186    22.7240     96.882  92.471535      5.474     8.3815     97.215    8.62153    8.60334 2.8182e+01     5.0827     1.9894    60.8137   997.6613  0.000e+00
      3.866    22.7151    22.7206     96.985  92.563115      5.499     8.3768     97.155    8.62210    8.60390 2.8559e+01     4.9958     2.0428    60.0082   997.6622  0.000e+00
      3.879    22.7149    22.7204     96.985  92.563115      5.518     8.3742     97.124    8.62213    8.60393 2.7810e+01     5.0360     2.1085    59.0295   997.6623  0.000e+00
      3.895    22.7144    22.7199     96.826  92.410483      5.540     8.3631     96.994    8.62222    8.60402 2.8298e+01     5.0085     2.0279    60.2318   997.6624  0.000e+00
      3.911    22.7110    22.7165     96.833  92.410485      5.563     8.3635     96.993    8.62277    8.60458 2.8040e+01     5.0318     1.9834    60.9055   997.6633  0.000e+00
      3.931    22.7069    22.7123     96.905  92.471539      5.591     8.3582     96.924    8.62345    8.60526 2.7778e+01     5.0806     1.9667    61.1602   997.6644  0.000e+00
      3.953    22.7014    22.7068     96.853  92.410488      5.622     8.3559     96.887    8.62436    8.60617 2.7205e+01     5.0382     1.9614    61.2416   997.6657  0.000e+00
      3.972    22.6927    22.6982     96.870  92.410491      5.649     8.3585     96.902    8.62578    8.60760 2.6815e+01     4.9936     1.9394    61.5792   997.6678  0.000e+00
      3.992    22.6831    22.6885     96.890  92.410494      5.679     8.3501     96.787    8.62737    8.60919 2.6987e+01     4.9809     1.9231    61.8309   997.6702  0.000e+00
      4.013    22.6793    22.6847     96.897  92.410495      5.708     8.3271     96.512    8.62799    8.60982 2.6540e+01     5.1251     1.9239    61.8176   997.6712  0.000e+00
      4.034    22.6759    22.6813     96.968  92.471549      5.738     8.3068     96.272    8.62855    8.61037 2.6106e+01     5.0869     1.9219    61.8487   997.6721  0.000e+00
      4.058    22.6728    22.6782     96.911  92.410497      5.772     8.2863     96.028    8.62906    8.61089 2.6607e+01     4.8622     1.9032    62.1389   997.6729  0.000e+00
      4.077    22.6714    22.6768     96.913  92.410498      5.799     8.2633     95.759    8.62928    8.61112 2.6431e+01     4.8007     1.9305    61.7154   997.6733  0.000e+00
      4.092    22.6703    22.6757     96.916  92.410498      5.821     8.2391     95.476    8.62947    8.61130 2.6082e+01     4.8707     1.9322    61.6902   997.6737  0.000e+00
      4.106    22.6712    22.6767     96.818  92.318919      5.840     8.2079     95.117    8.62932    8.61115 2.6503e+01     4.9046     1.9669    61.1572   997.6735  0.000e+00
      4.116    22.6718    22.6773     96.913  92.410498      5.854     8.1849     94.851    8.62921    8.61105 2.5897e+01     4.9428     2.0002    60.6493   997.6734  0.000e+00
      4.128    22.6713    22.6768     96.914  92.410498      5.871     8.1706     94.684    8.62930    8.61113 2.5832e+01     4.9640     1.9563    61.3201   997.6736  0.000e+00
      4.152    22.6698    22.6752     96.917  92.410499      5.905     8.1628     94.591    8.62955    8.61139 2.5374e+01     4.9152     1.8805    62.4927   997.6740  0.000e+00
      4.174    22.6631    22.6686     96.834  92.318922      5.936     8.1593     94.539    8.63065    8.61249 2.5655e+01     4.9343     1.8606    62.8037   997.6757  0.000e+00
      4.187    22.6471    22.6525     96.771  92.227349      5.955     8.1592     94.509    8.63329    8.61514 2.4913e+01     5.0848     1.9114    62.0115   997.6794  0.000e+00
      4.202    22.6344    22.6398     96.796  92.227353      5.977     8.1613     94.510    8.63538    8.61723 2.5432e+01     5.0233     1.8792    62.5135   997.6825  0.000e+00
      4.217    22.6300    22.6354     96.805  92.227354      5.997     8.1662     94.559    8.63610    8.61796 2.4483e+01     4.9110     1.8435    63.0731   997.6836  0.000e+00
      4.229    22.6253    22.6307     96.911  92.318934      6.015     8.1639     94.523    8.63688    8.61874 2.4641e+01     4.8622     1.8748    62.5816   997.6848  0.000e+00
      4.241    22.6223    22.6277     96.917  92.318935      6.032     8.1521     94.382    8.63738    8.61924 2.4584e+01     4.8347     1.8181    63.4744   997.6855  0.000e+00
      4.254    22.6229    22.6284     96.916  92.318935      6.051     8.1373     94.212    8.63726    8.61913 2.4658e+01     4.7923     1.8049    63.6846   997.6854  0.000e+00
      4.266    22.6212    22.6266     96.759  92.166305      6.068     8.1244     94.059    8.63755    8.61942 2.4596e+01     4.7986     1.8370    63.1753   997.6858  0.000e+00
      4.287    22.6181    22.6235     96.765  92.166307      6.097     8.1065     93.846    8.63806    8.61993 2.4011e+01     4.7053     1.8128    63.5588   997.6866  0.000e+00
      4.305    22.6055    22.6109     96.695  92.074733      6.122     8.0914     93.649    8.64015    8.62203 2.4083e+01     4.7647     1.8323    63.2493   997.6896  0.000e+00
      4.318    22.5814    22.5868     96.840  92.166318      6.141     8.0875     93.560    8.64412    8.62601 2.3591e+01     4.6884     1.8138    63.5440   997.6954  0.000e+00
      4.333    22.5743    22.5797     96.855  92.166320      6.163     8.0872     93.545    8.64529    8.62718 2.3710e+01     4.7859     1.8417    63.1013   997.6971  0.000e+00
      4.344    22.5775    22.5829     96.848  92.166319      6.179     8.0878     93.557    8.64476    8.62666 2.3640e+01     4.8940     1.8592    62.8259   997.6964  0.000e+00
      4.358    22.5778    22.5832     96.847  92.166319      6.199     8.0831     93.504    8.64470    8.62660 2.3678e+01     4.9322     1.8020    63.7305   997.6964  0.000e+00
      4.374    22.5715    22.5770     96.604  91.922115      6.221     8.0719     93.363    8.64575    8.62764 2.2878e+01     5.0127     1.8302    63.2834   997.6978  0.000e+00
      4.394    22.5469    22.5523     96.654  91.922123      6.249     8.0849     93.469    8.64982    8.63173 2.3173e+01     5.1102     1.8386    63.1501   997.7037  0.000e+00
      4.409    22.5133    22.5187     96.722  91.922133      6.271     8.0850     93.410    8.65537    8.63731 2.3057e+01     5.1569     1.8541    62.9058   997.7116  0.000e+00
      4.428    22.4832    22.4886     96.687  91.830565      6.297     8.0704     93.188    8.66034    8.64230 2.2283e+01     5.2650     1.7689    64.2606   997.7186  0.000e+00
      4.447    22.4589    22.4643     96.640  91.738996      6.326     8.0648     93.080    8.66437    8.64635 2.2029e+01     5.3498     1.7703    64.2384   997.7243  0.000e+00
      4.466    22.4390    22.4444     96.681  91.739002      6.352     8.0484     92.856    8.66767    8.64966 2.2478e+01     5.2692     1.7488    64.5849   997.7290  0.000e+00
      4.479    22.4284    22.4338     96.541  91.586380      6.371     8.0243     92.559    8.66943    8.65143 2.2257e+01     5.3032     1.7555    64.4768   997.7315  0.000e+00
      4.496    22.4201    22.4255     96.719  91.739008      6.394     7.9997     92.260    8.67080    8.65281 2.2222e+01     5.0954     1.7613    64.3820   997.7335  0.000e+00
      4.515    22.4096    22.4150     96.644  91.647436      6.422     7.9716     91.918    8.67255    8.65456 2.1833e+01     4.9682     1.7492    64.5774   997.7360  0.000e+00
      4.534    22.4024    22.4078     96.659  91.647438      6.449     7.9419     91.562    8.67375    8.65576 2.1713e+01     4.9767     1.7450    64.6456   997.7378  0.000e+00
      4.547    22.3933    22.3987     96.677  91.647441      6.468     7.9114     91.195    8.67525    8.65727 2.1589e+01     4.9767     1.7766    64.1362   997.7399  0.000e+00
      4.563    22.3856    22.3910     96.628  91.586393      6.490     7.8802     90.822    8.67653    8.65855 2.1693e+01     4.9110     1.7749    64.1644   997.7418  0.000e+00
      4.574    22.3806    22.3860     96.703  91.647445      6.505     7.8474     90.435    8.67737    8.65939 2.1304e+01     5.1081     1.7662    64.3035   997.7430  0.000e+00
      4.589    22.3743    22.3797     96.651  91.586397      6.527     7.8231     90.145    8.67840    8.66044 2.1241e+01     5.4049     1.7478    64.6011   997.7445  0.000e+00
      4.614    22.3591    22.3645     96.489  91.403252      6.563     7.8058     89.919    8.68094    8.66298 2.1153e+01     5.6190     1.7517    64.5375   997.7480  0.000e+00
      4.645    22.3438    22.3491     96.456  91.342207      6.607     7.7960     89.780    8.68349    8.66555 2.1134e+01     5.5703     1.7338    64.8277   997.7517  0.000e+00
      4.684    22.3195    22.3249     96.409  91.250640      6.662     7.7944     89.720    8.68753    8.66960 2.1052e+01     5.4325     1.7185    65.0749   997.7575  0.000e+00
      4.724    22.2930    22.2984     96.205  91.006453      6.719     7.7955     89.687    8.69195    8.67404 2.0308e+01     5.2862     1.7026    65.3341   997.7637  0.000e+00
      4.775    22.2548    22.2601     96.283  91.006465      6.791     7.7900     89.557    8.69833    8.68044 1.9707e+01     5.2120     1.7065    65.2704   997.7727  0.000e+00
      4.834    22.2101    22.2154     95.921  90.579144      6.876     7.7806     89.372    8.70579    8.68794 1.9358e+01     4.9555     1.7655    64.3154   997.7831  0.000e+00
      4.893    22.1447    22.1500     95.472  90.029746      6.960     7.7621     89.048    8.71674    8.69893 1.9270e+01     4.7138     1.7376    64.7655   997.7982  0.000e+00
      4.934    22.0406    22.0459     95.326  89.694029      7.018     7.7311     88.515    8.73421    8.71647 1.8369e+01     4.4722     1.7631    64.3539   997.8220  0.000e+00
      4.981    21.9186    21.9239     95.119  89.266757      7.085     7.6981     87.931    8.75476    8.73711 1.8064e+01     4.4022     1.7774    64.1244   997.8498  0.000e+00
      5.031    21.8006    21.8059     94.935  88.870014      7.155     7.6613     87.311    8.77473    8.75716 1.8114e+01     4.2686     1.7766    64.1377   997.8766  0.000e+00
      5.079    21.6640    21.6692     94.591  88.290162      7.224     7.6263     86.683    8.79794    8.78047 1.7322e+01     4.2008     1.7625    64.3628   997.9073  0.000e+00
      5.136    21.5129    21.5181     94.636  88.046046      7.305     7.5977     86.105    8.82374    8.80638 1.6852e+01     4.0333     1.7596    64.4101   997.9412  0.000e+00
      5.188    21.3701    21.3752     94.040  87.222068      7.379     7.5710     85.564    8.84827    8.83101 1.6822e+01     3.8998     1.7678    64.2784   997.9729  0.000e+00
      5.235    21.1714    21.1765     93.717  86.550727      7.446     7.5580     85.088    8.88259    8.86547 1.6246e+01     3.8171     1.7549    64.4857   998.0166  0.000e+00
      5.283    20.9323    20.9373     93.674  86.062518      7.515     7.5631     84.748    8.92418    8.90724 1.6042e+01     3.7577     1.7551    64.4827   998.0687  0.000e+00
      5.329    20.6994    20.7043     93.717  85.665868      7.579     7.5743     84.487    8.96505    8.94828 1.5860e+01     3.7514     1.7716    64.2177   998.1190  0.000e+00
      5.386    20.4758    20.4807     93.675  85.208191      7.660     7.5860     84.245    9.00459    8.98798 1.5264e+01     3.7366     1.8065    63.6595   998.1668  0.000e+00
      5.448    20.2859    20.2907     93.495  84.689484      7.749     7.5931     84.009    9.03844    9.02197 1.4806e+01     3.7450     1.8360    63.1916   998.2069  0.000e+00
      5.502    20.0905    20.0954     93.325  84.170792      7.826     7.6203     83.984    9.07348    9.05716 1.4441e+01     3.7535     1.8892    62.3565   998.2478  0.000e+00
      5.564    19.8851    19.8899     93.413  83.865710      7.913     7.6492     83.959    9.11060    9.09443 1.3895e+01     3.7832     2.0270    60.2451   998.2905  0.000e+00
      5.621    19.6943    19.6990     93.334  83.438576      7.995     7.6563     83.718    9.14532    9.12930 1.3559e+01     3.7705     2.3849    55.0881   998.3297  0.000e+00
      5.671    19.5022    19.5068     93.291  83.041962      8.066     7.6330     83.143    9.18053    9.16465 1.3358e+01     3.8765     2.7488    50.2983   998.3687  0.000e+00
      5.728    19.3154    19.3200     93.306  82.706379      8.148     7.5379     81.801    9.21499    9.19924 1.2999e+01     4.0058     3.0050    47.1771   998.4063  0.000e+00
      5.787    19.1446    19.1492     93.010  82.126706      8.231     7.3979     80.006    9.24671    9.23110 1.2696e+01     4.1584     3.2103    44.8170   998.4404  0.000e+00
      5.827    18.9532    18.9578     93.034  81.791138      8.288     7.2014     77.581    9.28248    9.26700 1.2406e+01     4.3089     3.5076    41.6070   998.4781  0.000e+00
      5.865    18.7466    18.7511     93.404  81.730172      8.342     6.9952     75.045    9.32137    9.30605 1.2102e+01     4.5061     4.2608    34.4659   998.5185  0.000e+00
      5.916    18.5726    18.5770     93.182  81.211546      8.415     6.8017     72.712    9.35437    9.33918 1.1392e+01     4.6629     4.6124    31.5654   998.5521  0.000e+00
      5.958    18.3836    18.3880     93.025  80.723446      8.474     6.6508     70.826    9.39044    9.37539 1.0999e+01     5.0488     4.9999    28.6515   998.5882  0.000e+00
      5.997    18.1791    18.1835     93.466  80.723500      8.529     6.6011     70.003    9.42974    9.41484 1.0829e+01     5.5300     5.3107    26.5090   998.6269  0.000e+00
      6.044    18.0220    18.0263     93.417  80.387944      8.596     6.5826     69.582    9.46014    9.44535 1.0013e+01     6.2507     5.4328    25.7124   998.6563  0.000e+00
      6.105    17.8944    17.8986     93.411  80.143911      8.684     6.5928     69.508    9.48498    9.47028 9.2924e+00     7.6902     5.5725    24.8300   998.6802  0.000e+00
      6.169    17.7536    17.7578     93.433  79.899884      8.774     6.6064     69.449    9.51250    9.49791 8.8498e+00     8.6462     5.7046    24.0230   998.7062  0.000e+00
      6.221    17.6048    17.6090     93.401  79.594846      8.848     6.6091     69.265    9.54175    9.52726 8.2411e+00     9.4709     5.6686    24.2407   998.7334  0.000e+00
      6.265    17.4561    17.4603     93.513  79.411842      8.910     6.5745     68.691    9.57114    9.55676 7.8738e+00    10.4312     5.4547    25.5718   998.7604  0.000e+00
      6.322    17.3138    17.3180     93.431  79.076303      8.992     6.5183     67.903    9.59941    9.58513 7.0488e+00    12.3667     5.2091    27.1916   998.7859  0.000e+00
      6.370    17.1392    17.1433     93.348  78.679765      9.060     6.4273     66.712    9.63433    9.62018 6.8185e+00    15.1416     4.8878    29.4658   998.8169  0.000e+00
      6.411    16.9320    16.9360     93.518  78.435771      9.118     6.2936     65.043    9.67605    9.66204 6.3787e+00    19.2182     4.8030    30.0966   998.8533  0.000e+00
      6.457    16.7424    16.7464     93.541  78.100260      9.184     6.1062     62.857    9.71450    9.70062 6.0929e+00    22.2221     4.6863    30.9879   998.8861  0.000e+00
      6.499    16.5672    16.5712     93.716  77.917274      9.243     5.8662     60.164    9.75029    9.73653 5.6973e+00    25.0034     4.3312    33.8648   998.9161  0.000e+00
      6.536    16.3773    16.3812     93.777  77.612275      9.296     5.5202     56.390    9.78935    9.77571 5.6726e+00    28.8595     4.1328    35.5867   998.9482  0.000e+00
      6.556    16.1869    16.1908     94.100  77.520809      9.324     5.0723     51.607    9.82878    9.81527 5.6298e+00    32.4082     3.9981    36.8053   998.9799  0.000e+00
      6.582    16.0285    16.0323     94.389  77.459841      9.362     4.5303     45.938    9.86182    9.84841 5.3274e+00    34.3203     3.8795    37.9128   999.0061  0.000e+00
      6.621    15.9261    15.9300     94.401  77.276842      9.417     3.9008     39.469    9.88327    9.86992 5.0701e+00    36.1646     3.7678    38.9863   999.0228  0.000e+00
      6.662    15.8211    15.8249     94.346  77.032837      9.476     3.2097     32.404    9.90538    9.89210 4.9929e+00    37.6782     3.6969    39.6836   999.0399  0.000e+00
      6.706    15.6979    15.7016     94.444  76.880350      9.539     2.5130     25.304    9.93141    9.91821 4.6933e+00    39.8596     3.7389    39.2691   999.0598  0.000e+00
      6.746    15.5859    15.5897     94.103  76.392329      9.595     1.8510     18.593    9.95518    9.94205 4.5120e+00    40.9662     3.7035    39.6185   999.0776  0.000e+00
      6.784    15.3902    15.3939     93.615  75.629823      9.650     1.2648     12.652    9.99699    9.98399 4.3846e+00    41.9859     3.5729    40.9333   999.1083  0.000e+00
      6.828    15.1188    15.1224     93.945  75.385878      9.712     0.7737      7.694   10.05548   10.04263 4.2248e+00    41.9901     3.4514    42.1963   999.1503  0.000e+00
      6.886    14.8916    14.8951     93.868  74.897920      9.795     0.3843      3.803   10.10492   10.09220 4.0245e+00    41.8120     3.3102    43.7124   999.1849  0.000e+00
      6.928    14.6663    14.6698     93.787  74.409971      9.854     0.0913      0.900   10.15436   10.14177 3.8222e+00    41.0510     3.2585    44.2810   999.2184  0.000e+00
      6.966    14.4580    14.4615     93.973  74.166025      9.907    -0.0977     -0.958   10.20046   10.18798 3.8022e+00    40.3557     3.2927    43.9034   999.2490  0.000e+00
      7.011    14.2877    14.2911     94.186  74.013569      9.971    -0.2009     -1.962   10.23844   10.22606 3.5782e+00    40.1988     3.3095    43.7198   999.2737  0.000e+00
      7.068    14.1683    14.1717     94.045  73.678109     10.053    -0.2457     -2.393   10.26523   10.25290 3.4226e+00    40.3217     3.1700    45.2715   999.2908  0.000e+00
      7.123    14.0579    14.0613     93.999  73.434147     10.131    -0.2448     -2.379   10.29009   10.27782 3.2372e+00    39.8257     2.8810    48.6637   999.3065  0.000e+00
      7.183    13.9438    13.9472     93.530  72.854713     10.217    -0.2199     -2.131   10.31591   10.30370 3.0922e+00    38.9226     2.8682    48.8191   999.3225  0.000e+00
      7.250    13.7917    13.7951     93.032  72.183814     10.312    -0.1768     -1.708   10.35052   10.33839 3.0083e+00    37.6570     2.6328    51.7789   999.3435  0.000e+00
      7.311    13.6085    13.6118     92.763  71.634927     10.398    -0.1208     -1.163   10.39249   10.38044 2.9523e+00    35.9336     2.5119    53.3676   999.3685  0.000e+00
      7.353    13.3962    13.3994     92.720  71.208041     10.459    -0.0510     -0.488   10.44149   10.42954 2.8259e+00    33.7310     2.3986    54.9001   999.3969  0.000e+00
      7.402    13.1801    13.1833     93.245  71.208091     10.528     0.0112      0.106   10.49175   10.47989 2.7487e+00    30.9391     2.3419    55.6848   999.4254  0.000e+00
      7.461    13.0171    13.0202     93.204  70.872685     10.612     0.0771      0.732   10.52999   10.51820 2.5879e+00    26.7714     2.3344    55.7884   999.4465  0.000e+00
      7.515    12.8602    12.8633     92.986  70.415307     10.689     0.1355      1.282   10.56702   10.55529 2.5820e+00    23.0806     2.3189    56.0046   999.4665  0.000e+00
      7.564    12.6832    12.6863     93.383  70.384854     10.759     0.1859      1.752   10.60905   10.59739 2.5097e+00    20.1212     2.2489    56.9937   999.4888  0.000e+00
      7.615    12.5406    12.5436     93.331  70.079950     10.831     0.2222      2.088   10.64316   10.63155 2.3721e+00    17.2869     2.2317    57.2395   999.5064  0.000e+00
      7.659    12.4048    12.4077     93.548  69.988501     10.894     0.2571      2.408   10.67582   10.66425 2.3274e+00    14.7727     2.1624    58.2404   999.5230  0.000e+00
      7.702    12.2847    12.2876     93.604  69.805569     10.954     0.2790      2.606   10.70484   10.69331 2.3088e+00    12.7588     2.1485    58.4432   999.5374  0.000e+00
      7.749    12.1932    12.1961     93.958  69.897070     11.022     0.2858      2.665   10.72704   10.71554 2.2721e+00    10.9908     2.1069    59.0532   999.5485  0.000e+00
      7.792    12.1361    12.1390     93.774  69.653139     11.083     0.3011      2.803   10.74094   10.72946 2.1773e+00     9.5472     2.0638    59.6929   999.5552  0.000e+00
      7.848    12.0832    12.0861     93.702  69.500687     11.162     0.2973      2.764   10.75386   10.74240 2.1129e+00     8.5148     2.1192    58.8726   999.5616  0.000e+00
      7.909    12.0026    12.0055     93.782  69.409228     11.250     0.2945      2.734   10.77355   10.76212 2.0322e+00     7.7559     2.2176    57.4423   999.5711  0.000e+00
      7.953    11.9055    11.9083     93.699  69.165312     11.312     0.2889      2.676   10.79742   10.78601 2.0067e+00     7.3743     2.3266    55.8980   999.5824  0.000e+00
      8.002    11.8092    11.8120     93.820  69.073857     11.381     0.2791      2.579   10.82115   10.80977 1.9050e+00     7.7283     2.5253    53.1885   999.5934  0.000e+00
      8.057    11.7386    11.7414     93.668  68.829939     11.459     0.2715      2.505   10.83861   10.82725 1.8335e+00     8.2795     2.5285    53.1455   999.6015  0.000e+00
      8.117    11.6602    11.6630     93.868  68.829957     11.545     0.2656      2.446   10.85805   10.84671 1.7078e+00     8.9133     2.5103    53.3883   999.6105  0.000e+00
      8.169    11.5766    11.5794     94.083  68.829976     11.619     0.2666      2.450   10.87884   10.86752 1.6903e+00     9.3818     2.5500    52.8612   999.6200  0.000e+00
      8.223    11.4927    11.4954     94.550  69.012946     11.695     0.2663      2.443   10.89980   10.88850 1.5600e+00     9.8270     2.5361    53.0448   999.6295  0.000e+00
      8.282    11.4052    11.4080     94.987  69.165426     11.780     0.2675      2.449   10.92170   10.91042 1.5111e+00    10.2531     2.6210    51.9314   999.6393  0.000e+00
      8.325    11.3178    11.3205     95.215  69.165446     11.841     0.2627      2.401   10.94368   10.93243 1.5146e+00    10.8361     2.7830    49.8704   999.6488  0.000e+00
      8.348    11.2327    11.2354     95.439  69.165465     11.873     0.2513      2.292   10.96516   10.95392 1.4178e+00    11.4339     2.9223    48.1632   999.6579  0.000e+00
      8.377    11.1809    11.1836     95.449  69.074001     11.916     0.2470      2.250   10.97826   10.96703 1.3962e+00    12.0995     2.9632    47.6731   999.6635  0.000e+00
      8.419    11.1487    11.1514     95.324  68.921548     11.975     0.2379      2.165   10.98642   10.97520 1.3574e+00    12.6974     3.1279    45.7498   999.6669  0.000e+00
      8.452    11.0871    11.0897     95.486  68.921562     12.022     0.2281      2.073   11.00208   10.99087 1.3071e+00    13.0387     3.2919    43.9123   999.6735  0.000e+00
      8.480    11.0140    11.0166     95.426  68.738629     12.061     0.2216      2.011   11.02069   11.00950 1.2699e+00    13.4054     3.4699    42.0008   999.6810  0.000e+00
      8.503    10.9591    10.9617     95.826  68.921591     12.094     0.2080      1.885   11.03471   11.02352 1.2298e+00    13.4711     3.3971    42.7722   999.6868  0.000e+00
      8.533    10.9368    10.9394     95.631  68.738646     12.137     0.2050      1.856   11.04041   11.02922 1.1975e+00    13.8612     3.4227    42.4998   999.6892  0.000e+00
      8.554    10.9084    10.9110     95.707  68.738653     12.167     0.2014      1.823   11.04768   11.03650 1.1847e+00    15.1416     3.3970    42.7737   999.6921  0.000e+00
      8.564    10.8677    10.8703     95.901  68.799645     12.181     0.1935      1.750   11.05812   11.04695 1.1744e+00    15.8730     3.3164    43.6443   999.6963  0.000e+00
      8.575    10.8493    10.8519     95.865  68.738666     12.197     0.1922      1.737   11.06285   11.05168 1.1659e+00    16.3605     3.1679    45.2952   999.6982  0.000e+00
      8.591    10.8552    10.8578     95.976  68.830140     12.219     0.1863      1.684   11.06132   11.05015 1.1376e+00    17.1894     2.8844    48.6222   999.6977  0.000e+00
      8.603    10.8727    10.8753     95.930  68.830136     12.236     0.1878      1.698   11.05683   11.04565 1.1407e+00    17.9271     2.8379    49.1908   999.6960  0.000e+00
      8.621    10.8863    10.8889     95.681  68.677675     12.262     0.1899      1.718   11.05336   11.04218 1.0800e+00    18.3299     2.8219    49.3877   999.6946  0.000e+00
      8.650    10.8787    10.8813     95.701  68.677677     12.303     0.1909      1.727   11.05531   11.04413 1.0330e+00    18.6352     2.7530    50.2450   999.6956  0.000e+00
      8.687    10.8481    10.8507     95.783  68.677684     12.356     0.1924      1.739   11.06316   11.05199 9.5711e-01    18.4380     2.7322    50.5070   999.6988  0.000e+00
      8.725    10.7960    10.7986     95.922  68.677696     12.409     0.1899      1.715   11.07653   11.06537 9.4643e-01    17.6134     2.7563    50.2035   999.7042  0.000e+00
      8.760    10.7535    10.7561     96.036  68.677705     12.459     0.1848      1.667   11.08748   11.07633 9.3137e-01    16.5937     2.7401    50.4078   999.7086  0.000e+00
      8.782    10.7215    10.7241     96.122  68.677713     12.491     0.1830      1.649   11.09574   11.08459 9.2013e-01    16.1019     2.7212    50.6462   999.7118  0.000e+00
      8.804    10.7035    10.7061     96.171  68.677717     12.522     0.1829      1.648   11.10038   11.08924 8.8700e-01    15.6928     2.7306    50.5278   999.7137  0.000e+00
      8.832    10.7081    10.7107     96.159  68.677716     12.563     0.1817      1.637   11.09920   11.08805 8.9620e-01    15.0356     2.7450    50.3456   999.7134  0.000e+00
      8.860    10.7027    10.7052     96.173  68.677717     12.602     0.1756      1.582   11.10060   11.08945 8.7129e-01    14.4124     2.7550    50.2198   999.7140  0.000e+00
      8.883    10.6725    10.6751     96.340  68.738707     12.634     0.1765      1.589   11.10840   11.09726 8.6950e-01    13.8082     2.7521    50.2568   999.7171  0.000e+00
      8.904    10.6497    10.6522     96.316  68.677730     12.664     0.1734      1.560   11.11431   11.10317 8.2865e-01    13.2761     2.7687    50.0480   999.7194  0.000e+00
      8.928    10.6335    10.6361     96.360  68.677733     12.699     0.1712      1.540   11.11849   11.10735 8.2675e-01    12.8097     2.7817    49.8867   999.7211  0.000e+00
      8.943    10.6138    10.6164     96.499  68.738721     12.720     0.1660      1.492   11.12360   11.11246 8.3494e-01    12.1928     2.8192    49.4203   999.7232  0.000e+00
      8.962    10.6067    10.6093     96.432  68.677740     12.747     0.1621      1.457   11.12544   11.11430 7.9772e-01    11.6268     2.8452    49.1004   999.7239  0.000e+00
      8.980    10.6055    10.6080     96.436  68.677740     12.772     0.1600      1.438   11.12576   11.11463 7.9371e-01    11.2622     2.8310    49.2752   999.7241  0.000e+00
      8.999    10.5880    10.5905     96.483  68.677744     12.800     0.1563      1.405   11.13030   11.11917 7.8413e-01    11.1435     2.8212    49.3966   999.7259  0.000e+00
      9.030    10.5714    10.5740     96.528  68.677748     12.844     0.1623      1.458   11.13459   11.12346 7.6286e-01    10.8976     2.8435    49.1212   999.7276  0.000e+00
      9.066    10.5668    10.5693     97.355  69.257097     12.895     0.1576      1.415   11.13577   11.12464 7.1235e-01    10.6623     2.8767    48.7155   999.7285  0.000e+00
      9.106    10.5319    10.5344     97.794  69.501046     12.952     0.1545      1.386   11.14484   11.13372 6.9589e-01    10.3506     2.9132    48.2728   999.7322  0.000e+00
      9.137    10.4914    10.4940     97.991  69.562041     12.995     0.1600      1.434   11.15537   11.14424 6.8388e-01    10.1386     2.9192    48.2002   999.7363  0.000e+00
      9.169    10.4597    10.4622     98.466  69.836486     13.041     0.1522      1.364   11.16362   11.15251 6.7438e-01     9.8355     2.9103    48.3083   999.7396  0.000e+00
      9.198    10.4353    10.4378     98.620  69.897479     13.083     0.1552      1.390   11.16999   11.15888 6.5100e-01     9.6892     2.9537    47.7871   999.7421  0.000e+00
      9.220    10.4136    10.4161     98.680  69.897484     13.114     0.1574      1.409   11.17567   11.16456 6.5384e-01     9.5535     2.9885    47.3725   999.7442  0.000e+00
      9.240    10.3986    10.4011     98.378  69.653542     13.142     0.1592      1.424   11.17958   11.16847 6.3103e-01     9.4794     2.9798    47.4762   999.7456  0.000e+00
      9.267    10.4006    10.4031     98.846  69.988968     13.181     0.1570      1.404   11.17906   11.16795 6.1195e-01     9.3606     2.9929    47.3207   999.7457  0.000e+00
      9.292    10.3903    10.3928     99.090  70.141438     13.216     0.1552      1.388   11.18174   11.17063 6.0999e-01     9.1592     3.0238    46.9565   999.7469  0.000e+00
      9.310    10.3683    10.3708     98.936  69.988975     13.242     0.1560      1.395   11.18751   11.17640 6.1900e-01     9.0829     3.0383    46.7862   999.7490  0.000e+00
      9.320    10.3585    10.3610     98.963  69.988977     13.256     0.1545      1.381   11.19007   11.17896 6.0748e-01     8.9685     3.0761    46.3465   999.7499  0.000e+00
      9.332    10.3630    10.3655     98.692  69.806016     13.274     0.1511      1.351   11.18891   11.17781 5.9562e-01     8.9812     3.0595    46.5390   999.7495  0.000e+00
      9.358    10.3678    10.3703     98.937  69.988976     13.310     0.1500      1.340   11.18763   11.17653 5.7947e-01     9.3140     3.0804    46.2961   999.7492  0.000e+00
      9.388    10.3641    10.3666     99.077  70.080458     13.353     0.1504      1.344   11.18861   11.17750 5.7735e-01     9.0978     3.0701    46.4161   999.7498  0.000e+00
      9.417    10.3423    10.3448     99.225  70.141450     13.394     0.1453      1.298   11.19432   11.18321 5.5288e-01     8.9451     3.0848    46.2458   999.7520  0.000e+00
      9.442    10.3192    10.3217     99.203  70.080468     13.430     0.1484      1.325   11.20038   11.18927 5.4997e-01     8.7840     3.0947    46.1318   999.7542  0.000e+00
      9.476    10.3089    10.3114     99.318  70.141458     13.478     0.1479      1.320   11.20307   11.19197 5.1615e-01     8.4046     3.0910    46.1747   999.7554  0.000e+00
      9.518    10.3037    10.3062     99.117  69.988991     13.538     0.1464      1.307   11.20444   11.19334 5.0922e-01     7.9806     3.0758    46.3494   999.7560  0.000e+00
      9.549    10.2915    10.2940     98.892  69.806034     13.581     0.1493      1.332   11.20766   11.19656 4.9337e-01     7.8364     3.0847    46.2473   999.7572  0.000e+00
      9.583    10.2797    10.2821     98.709  69.653571     13.630     0.1477      1.317   11.21078   11.19968 4.7889e-01     7.5799     3.1006    46.0637   999.7584  0.000e+00
      9.619    10.2704    10.2728     98.735  69.653573     13.681     0.1556      1.388   11.21323   11.20213 4.7289e-01     7.2471     3.1148    45.9008   999.7594  0.000e+00
      9.643    10.2635    10.2659     98.625  69.562096     13.716     0.1488      1.326   11.21505   11.20395 4.5891e-01     6.8867     3.1487    45.5129   999.7601  0.000e+00
      9.670    10.2594    10.2619     98.766  69.653576     13.753     0.1479      1.319   11.21611   11.20502 4.4351e-01     6.6938     3.1798    45.1605   999.7607  0.000e+00
      9.701    10.2559    10.2583     99.122  69.897523     13.799     0.1446      1.289   11.21703   11.20594 4.4027e-01     6.3652     3.1353    45.6654   999.7613  0.000e+00
      9.731    10.2491    10.2515     99.011  69.806044     13.841     0.1444      1.287   11.21882   11.20772 4.3376e-01     6.1066     3.1290    45.7379   999.7620  0.000e+00
      9.751    10.2406    10.2431     99.165  69.897527     13.869     0.1492      1.330   11.22103   11.20994 4.1509e-01     5.8119     3.1785    45.1753   999.7629  0.000e+00
      9.781    10.2370    10.2395     99.175  69.897528     13.911     0.1477      1.316   11.22200   11.21090 4.0961e-01     5.6487     3.1701    45.2701   999.7634  0.000e+00
      9.796    10.2371    10.2396     99.305  69.989008     13.933     0.1416      1.262   11.22196   11.21086 3.9941e-01     5.5342     3.2146    44.7696   999.7635  0.000e+00
      9.812    10.2347    10.2372     99.311  69.989009     13.957     0.1366      1.217   11.22260   11.21150 3.9631e-01     5.5151     3.2081    44.8421   999.7638  0.000e+00
      9.833    10.2306    10.2330     99.453  70.080491     13.986     0.1478      1.317   11.22368   11.21258 3.8734e-01     5.3265     3.2197    44.7119   999.7643  0.000e+00
      9.861    10.2271    10.2296     99.809  70.324443     14.025     0.1386      1.234   11.22458   11.21349 3.8170e-01     5.3477     3.2036    44.8925   999.7649  0.000e+00
      9.876    10.2189    10.2213     99.832  70.324445     14.047     0.1392      1.240   11.22675   11.21566 3.6787e-01     5.3858     3.2027    44.9029   999.7657  0.000e+00
      9.904    10.2127    10.2152     99.503  70.080495     14.086     0.1406      1.252   11.22838   11.21729 3.5904e-01     5.2480     3.1974    44.9621   999.7663  0.000e+00
      9.943    10.2113    10.2137    100.070  70.476918     14.142     0.1405      1.251   11.22875   11.21765 3.4265e-01     5.0403     3.1879    45.0687   999.7668  0.000e+00
      9.977    10.2014    10.2039    100.098  70.476921     14.191     0.1416      1.261   11.23134   11.22025 3.3160e-01     4.8877     3.2037    44.8910   999.7679  0.000e+00
     10.007    10.1876    10.1900    100.268  70.568407     14.233     0.1392      1.239   11.23500   11.22391 3.3107e-01     4.7350     3.2134    44.7829   999.7693  0.000e+00
     10.020    10.1760    10.1784    100.171  70.476927     14.252     0.1417      1.261   11.23806   11.22697 3.2963e-01     4.6502     3.2126    44.7918   999.7704  0.000e+00
     10.033    10.1707    10.1732    100.316  70.568411     14.271     0.1422      1.265   11.23944   11.22835 3.1886e-01     4.5358     3.2135    44.7814   999.7710  0.000e+00
     10.049    10.1677    10.1702    100.411  70.629401     14.293     0.1473      1.310   11.24023   11.22914 3.2172e-01     4.5252     3.1975    44.9606   999.7714  0.000e+00
     10.064    10.1653    10.1677    100.331  70.568413     14.314     0.1395      1.241   11.24088   11.22979 3.0830e-01     4.4828     3.1941    44.9991   999.7716  0.000e+00
     10.085    10.1642    10.1666    100.334  70.568413     14.344     0.1401      1.247   11.24116   11.23007 3.1050e-01     4.4192     3.1925    45.0169   999.7718  0.000e+00
     10.117    10.1620    10.1644    100.427  70.629403     14.389     0.1465      1.303   11.24175   11.23066 3.0083e-01     4.2538     3.2349    44.5431   999.7722  0.000e+00
     10.151    10.1525    10.1549    100.585  70.720889     14.438     0.1391      1.237   11.24426   11.23317 2.9180e-01     4.1987     3.2282    44.6171   999.7733  0.000e+00
     10.167    10.1386    10.1410    100.755  70.812377     14.461     0.1445      1.285   11.24792   11.23683 2.9027e-01     4.1690     3.2456    44.4231   999.7747  0.000e+00
     10.182    10.1317    10.1341    100.774  70.812378     14.482     0.1396      1.241   11.24974   11.23865 2.8696e-01     4.0842     3.2544    44.3254   999.7754  0.000e+00
     10.201    10.1294    10.1318    100.868  70.873369     14.510     0.1362      1.210   11.25036   11.23927 2.8545e-01     3.9846     3.2783    44.0619   999.7757  0.000e+00
     10.227    10.1267    10.1292    101.006  70.964855     14.546     0.1374      1.221   11.25105   11.23996 2.7286e-01     3.9973     3.3127    43.6843   999.7761  0.000e+00
     10.256    10.1210    10.1234    100.892  70.873371     14.588     0.1375      1.222   11.25258   11.24149 2.5938e-01     3.9061     3.3633    43.1350   999.7767  0.000e+00
     10.293    10.1132    10.1156    100.914  70.873373     14.639     0.1312      1.165   11.25463   11.24354 2.5843e-01     3.7726     3.3669    43.0965   999.7776  0.000e+00
     10.339    10.1088    10.1112    101.057  70.964859     14.705     0.1303      1.158   11.25580   11.24472 2.4444e-01     3.7238     3.4149    42.5827   999.7783  0.000e+00
     10.386    10.1024    10.1048    101.032  70.934366     14.772     0.1330      1.182   11.25748   11.24640 2.4232e-01     3.6814     3.4326    42.3947   999.7790  0.000e+00
     10.432    10.0958    10.0983    101.095  70.964863     14.838     0.1272      1.130   11.25922   11.24814 2.3472e-01     3.6221     3.4495    42.2155   999.7799  0.000e+00
     10.480    10.0890    10.0915    101.244  71.056350     14.907     0.1318      1.170   11.26102   11.24994 2.2201e-01     3.5288     3.4427    42.2881   999.7807  0.000e+00
     10.543    10.0832    10.0856    101.261  71.056352     14.996     0.1290      1.145   11.26258   11.25149 2.1275e-01     3.4567     3.4366    42.3517   999.7816  0.000e+00
     10.609    10.0768    10.0792    101.280  71.056354     15.090     0.1323      1.175   11.26427   11.25319 2.0322e-01     3.4991     3.4382    42.3354   999.7825  0.000e+00
     10.673    10.0690    10.0714    101.302  71.056356     15.180     0.1345      1.193   11.26634   11.25525 2.0664e-01     3.5394     3.4217    42.5102   999.7835  0.000e+00
     10.717    10.0604    10.0628    101.327  71.056359     15.243     0.1338      1.187   11.26862   11.25754 1.9590e-01     3.5097     3.4399    42.3177   999.7844  0.000e+00
     10.754    10.0526    10.0550    101.437  71.117351     15.296     0.1292      1.147   11.27067   11.25959 1.8980e-01     3.8213     3.4495    42.2155   999.7853  0.000e+00
     10.800    10.0474    10.0498    101.452  71.117353     15.361     0.1313      1.165   11.27207   11.26099 1.8863e-01     3.7980     3.4580    42.1267   999.7860  0.000e+00
     10.840    10.0438    10.0462    101.375  71.056363     15.418     0.1309      1.161   11.27302   11.26194 1.8310e-01     3.6496     3.4702    41.9979   999.7865  0.000e+00
     10.881    10.0392    10.0416    101.389  71.056365     15.477     0.1277      1.133   11.27425   11.26317 1.8347e-01     3.6051     3.4632    42.0719   999.7871  0.000e+00
     10.916    10.0344    10.0368    101.620  71.208842     15.526     0.1237      1.097   11.27550   11.26442 1.7965e-01     3.6433     3.4589    42.1163   999.7878  0.000e+00
     10.942    10.0295    10.0320    101.634  71.208844     15.563     0.1274      1.130   11.27680   11.26571 1.7606e-01     3.5076     3.4564    42.1430   999.7883  0.000e+00
     10.980    10.0244    10.0268    101.431  71.056369     15.618     0.1186      1.052   11.27817   11.26709 1.7366e-01     3.3592     3.4452    42.2614   999.7889  0.000e+00
     11.034    10.0197    10.0221    101.663  71.208847     15.694     0.1232      1.092   11.27942   11.26834 1.7434e-01     3.2829     3.4536    42.1726   999.7897  0.000e+00
     11.084    10.0136    10.0160    101.550  71.117362     15.765     0.1257      1.115   11.28103   11.26995 1.6856e-01     3.2765     3.4616    42.0882   999.7904  0.000e+00
     11.129    10.0044    10.0068    101.577  71.117365     15.829     0.1276      1.131   11.28349   11.27241 1.6467e-01     3.2151     3.4511    42.1992   999.7914  0.000e+00
     11.170     9.9965     9.9989    101.599  71.117367     15.888     0.1243      1.102   11.28557   11.27449 1.6138e-01     3.1218     3.4560    42.1474   999.7923  0.000e+00
     11.211     9.9924     9.9948    101.742  71.208854     15.946     0.1215      1.076   11.28667   11.27559 1.6031e-01     3.1133     3.4494    42.2170   999.7929  0.000e+00
     11.243     9.9884     9.9908    101.623  71.117369     15.991     0.1204      1.067   11.28774   11.27666 1.6002e-01     3.1197     3.4488    42.2229   999.7934  0.000e+00
     11.273     9.9833     9.9857    101.638  71.117371     16.033     0.1253      1.110   11.28911   11.27803 1.6444e-01     3.1112     3.4457    42.2555   999.7940  0.000e+00
     11.295     9.9807     9.9831    101.776  71.208857     16.065     0.1237      1.095   11.28977   11.27869 1.5867e-01     3.1069     3.4316    42.4050   999.7943  0.000e+00
     11.298     9.9792     9.9816    101.781  71.208858     16.069     0.1258      1.114   11.29019   11.27911 1.6153e-01     3.1091     3.4355    42.3636   999.7945  0.000e+00
     11.302     9.9778     9.9802    101.784  71.208858     16.076     0.1192      1.056   11.29055   11.27947 1.5707e-01     3.0412     3.4375    42.3428   999.7946  0.000e+00
     11.331     9.9799     9.9823    101.779  71.208858     16.116     0.1220      1.081   11.29000   11.27892 1.5401e-01     3.0243     3.4239    42.4865   999.7946  0.000e+00
     11.370     9.9820     9.9844    101.772  71.208858     16.172     0.1257      1.113   11.28944   11.27836 1.5443e-01     2.9882     3.4302    42.4198   999.7946  0.000e+00
     11.403     9.9773     9.9797    101.655  71.117373     16.219     0.1224      1.084   11.29069   11.27961 1.5707e-01     2.9522     3.4284    42.4391   999.7951  0.000e+00
     11.422     9.9728     9.9752    101.930  71.300347     16.246     0.1244      1.102   11.29187   11.28079 1.5686e-01     2.9755     3.4291    42.4317   999.7957  0.000e+00
     11.444     9.9722     9.9746    101.801  71.208860     16.277     0.1201      1.064   11.29204   11.28096 1.5359e-01     2.9819     3.4298    42.4243   999.7958  0.000e+00
     11.480     9.9695     9.9719    101.939  71.300348     16.329     0.1255      1.111   11.29276   11.28168 1.5236e-01     2.9925     3.4203    42.5250   999.7963  0.000e+00
     11.521     9.9655     9.9679    101.951  71.300349     16.387     0.1191      1.055   11.29383   11.28275 1.5433e-01     2.9988     3.4245    42.4805   999.7968  0.000e+00
     11.555     9.9600     9.9624    101.836  71.208864     16.435     0.1248      1.105   11.29528   11.28420 1.5021e-01     2.9925     3.4469    42.2436   999.7974  0.000e+00
     11.587     9.9576     9.9600    101.974  71.300351     16.480     0.1179      1.044   11.29593   11.28485 1.4881e-01     2.9628     3.4577    42.1296   999.7978  0.000e+00
     11.619     9.9545     9.9569    101.983  71.300352     16.526     0.1168      1.034   11.29676   11.28568 1.4877e-01     2.9479     3.4255    42.4702   999.7982  0.000e+00
     11.643     9.9495     9.9519    101.998  71.300354     16.560     0.1176      1.041   11.29810   11.28702 1.4796e-01     2.9098     3.4366    42.3517   999.7988  0.000e+00
     11.686     9.9464     9.9488    102.007  71.300355     16.621     0.1168      1.034   11.29891   11.28783 1.4684e-01     2.8928     3.4411    42.3044   999.7993  0.000e+00
     11.732     9.9439     9.9463    102.232  71.452834     16.687     0.1165      1.031   11.29957   11.28849 1.4540e-01     2.9267     3.4361    42.3577   999.7998  0.000e+00
     11.768     9.9364     9.9388    102.167  71.391844     16.738     0.1184      1.048   11.30158   11.29050 1.4769e-01     2.9267     3.4464    42.2481   999.8006  0.000e+00
     11.803     9.9294     9.9318    102.275  71.452838     16.788     0.1211      1.071   11.30345   11.29237 1.4752e-01     2.8589     3.4331    42.3887   999.8014  0.000e+00
     11.859     9.9254     9.9278    102.199  71.391848     16.868     0.1098      0.971   11.30451   11.29343 1.4597e-01     2.8356     3.4656    42.0467   999.8020  0.000e+00
     11.920     9.9207     9.9231    102.431  71.544328     16.954     0.1191      1.053   11.30575   11.29467 1.4577e-01     2.8208     3.4406    42.3103   999.8028  0.000e+00
     11.959     9.9150     9.9174    102.317  71.452842     17.010     0.1183      1.046   11.30728   11.29620 1.4457e-01     2.8165     3.4492    42.2185   999.8034  0.000e+00
     12.001     9.9100     9.9124    102.463  71.544331     17.069     0.1177      1.041   11.30861   11.29754 1.4081e-01     2.8144     3.4266    42.4583   999.8041  0.000e+00
     12.055     9.9070     9.9093    102.472  71.544332     17.146     0.1118      0.988   11.30942   11.29835 1.3803e-01     2.7593     3.4149    42.5827   999.8046  0.000e+00
     12.101     9.9047     9.9071    102.478  71.544333     17.212     0.1115      0.986   11.31003   11.29895 1.3848e-01     2.8229     3.3937    42.8092   999.8050  0.000e+00
     12.134     9.9034     9.9058    102.482  71.544334     17.259     0.1094      0.967   11.31037   11.29930 1.4110e-01     2.7911     3.3845    42.9070   999.8053  0.000e+00
     12.189     9.9029     9.9052    102.615  71.635822     17.337     0.1036      0.916   11.31051   11.29943 1.4224e-01     2.7550     3.3410    43.3763   999.8056  0.000e+00
     12.247     9.9020     9.9044    102.530  71.574831     17.420     0.1098      0.971   11.31075   11.29967 1.4182e-01     2.7084     3.3535    43.2416   999.8060  0.000e+00
     12.280     9.9005     9.9029    102.491  71.544335     17.466     0.1049      0.928   11.31114   11.30006 1.4250e-01     3.1705     3.3753    43.0062   999.8062  0.000e+00
     12.303     9.8991     9.9015    102.495  71.544336     17.499     0.1051      0.929   11.31151   11.30043 1.3791e-01     3.1960     3.3241    43.5599   999.8065  0.000e+00
     12.336     9.8986     9.9009    102.627  71.635824     17.546     0.1060      0.937   11.31166   11.30059 1.4091e-01     3.2426     3.3104    43.7095   999.8067  0.000e+00
     12.376     9.8983     9.9006    102.628  71.635825     17.602     0.1111      0.982   11.31174   11.30066 1.3778e-01     3.2299     3.3123    43.6887   999.8069  0.000e+00
     12.416     9.8973     9.8996    102.500  71.544337     17.660     0.1087      0.961   11.31201   11.30093 1.3959e-01     3.0730     3.3380    43.4089   999.8072  0.000e+00
     12.452     9.8962     9.8986    102.634  71.635826     17.710     0.1088      0.962   11.31229   11.30121 1.3822e-01     2.9628     3.3330    43.4637   999.8075  0.000e+00
     12.489     9.8947     9.8971    102.639  71.635826     17.763     0.1080      0.955   11.31269   11.30161 1.3581e-01     2.8780     3.3230    43.5718   999.8078  0.000e+00
     12.528     9.8917     9.8941    102.735  71.696820     17.820     0.1089      0.962   11.31348   11.30241 1.3605e-01     2.8229     3.3028    43.7924   999.8082  0.000e+00
     12.570     9.8894     9.8918    102.654  71.635828     17.879     0.1092      0.965   11.31411   11.30303 1.3609e-01     2.7614     3.3072    43.7450   999.8086  0.000e+00
     12.613     9.8871     9.8895    102.530  71.544341     17.940     0.1097      0.969   11.31472   11.30364 1.3781e-01     2.7084     3.3297    43.4992   999.8090  0.000e+00
     12.655     9.8859     9.8883    102.752  71.696822     17.999     0.1070      0.946   11.31504   11.30396 1.3593e-01     2.6766     3.3297    43.4992   999.8094  0.000e+00
     12.694     9.8850     9.8874    102.755  71.696822     18.056     0.1063      0.940   11.31527   11.30420 1.3715e-01     2.6999     3.3125    43.6873   999.8096  0.000e+00
     12.737     9.8843     9.8866    102.757  71.696823     18.117     0.1087      0.961   11.31548   11.30440 1.3787e-01     2.6448     3.3293    43.5037   999.8099  0.000e+00
     12.788     9.8843     9.8866    102.757  71.696823     18.188     0.1062      0.939   11.31548   11.30440 1.3361e-01     2.6215     3.3406    43.3808   999.8101  0.000e+00
     12.824     9.8843     9.8867    102.669  71.635831     18.240     0.1029      0.909   11.31546   11.30439 1.3559e-01     2.5897     3.3167    43.6414   999.8103  0.000e+00
     12.853     9.8840     9.8864    102.758  71.696824     18.281     0.1042      0.921   11.31554   11.30446 1.3640e-01     2.5430     3.3312    43.4829   999.8104  0.000e+00
     12.879     9.8838     9.8862    102.758  71.696824     18.318     0.1052      0.930   11.31560   11.30453 1.3574e-01     2.5473     3.3293    43.5037   999.8106  0.000e+00
     12.923     9.8841     9.8865    102.757  71.696824     18.381     0.1054      0.931   11.31552   11.30445 1.3787e-01     2.4816     3.3298    43.4977   999.8108  0.000e+00
     12.976     9.8839     9.8863    102.758  71.696824     18.456     0.1065      0.941   11.31557   11.30449 1.3772e-01     2.4964     3.3369    43.4207   999.8110  0.000e+00
     13.012     9.8827     9.8851    102.761  71.696825     18.507     0.1038      0.918   11.31588   11.30481 1.3787e-01     2.5536     3.3594    43.1779   999.8113  0.000e+00
     13.042     9.8816     9.8840    102.765  71.696825     18.549     0.1043      0.921   11.31618   11.30510 1.3331e-01     2.4943     3.3398    43.3897   999.8115  0.000e+00
     13.087     9.8808     9.8831    102.898  71.788315     18.613     0.1116      0.987   11.31641   11.30533 1.3759e-01     2.4498     3.3372    43.4178   999.8119  0.000e+00
     13.137     9.8804     9.8828    102.768  71.696826     18.685     0.1085      0.959   11.31651   11.30543 1.3309e-01     2.4328     3.3516    43.2623   999.8121  0.000e+00
     13.183     9.8795     9.8819    102.902  71.788316     18.751     0.1075      0.950   11.31674   11.30566 1.3398e-01     2.4604     3.3591    43.1809   999.8124  0.000e+00
     13.218     9.8781     9.8804    102.906  71.788316     18.801     0.1077      0.951   11.31712   11.30605 1.3364e-01     2.3925     3.3826    42.9277   999.8127  0.000e+00
     13.274     9.8769     9.8792    102.779  71.696828     18.881     0.1036      0.916   11.31746   11.30638 1.3706e-01     2.4519     3.3855    42.8966   999.8130  0.000e+00
     13.335     9.8758     9.8782    102.913  71.788318     18.967     0.1040      0.919   11.31773   11.30666 1.3475e-01     2.4455     3.4161    42.5694   999.8135  0.000e+00
     13.384     9.8739     9.8763    102.918  71.788318     19.037     0.1052      0.929   11.31823   11.30716 1.3463e-01     2.4519     3.4195    42.5338   999.8139  0.000e+00
     13.424     9.8715     9.8739    102.926  71.788319     19.093     0.0965      0.852   11.31889   11.30781 1.3233e-01     2.4116     3.4213    42.5146   999.8143  0.000e+00
     13.469     9.8689     9.8713    102.933  71.788320     19.157     0.0953      0.841   11.31957   11.30850 1.3512e-01     2.3947     3.4014    42.7263   999.8147  0.000e+00
     13.517     9.8671     9.8694    103.070  71.879810     19.226     0.0994      0.878   11.32007   11.30899 1.3515e-01     2.3565     3.4146    42.5857   999.8151  0.000e+00
     13.559     9.8651     9.8674    103.163  71.940804     19.285     0.0989      0.874   11.32059   11.30952 1.3911e-01     2.3629     3.4152    42.5797   999.8155  0.000e+00
     13.607     9.8637     9.8661    103.080  71.879812     19.354     0.0999      0.883   11.32095   11.30988 1.3556e-01     2.3798     3.4331    42.3887   999.8159  0.000e+00
     13.656     9.8627     9.8651    103.083  71.879812     19.423     0.0994      0.878   11.32124   11.31016 1.3494e-01     2.3947     3.4210    42.5176   999.8162  0.000e+00
     13.686     9.8613     9.8637    103.174  71.940806     19.467     0.0983      0.869   11.32159   11.31052 1.3349e-01     2.3862     3.4171    42.5590   999.8165  0.000e+00
     13.702     9.8601     9.8624    103.091  71.879813     19.489     0.0967      0.854   11.32194   11.31086 1.3463e-01     2.3692     3.4256    42.4687   999.8166  0.000e+00
     13.751     9.8595     9.8619    103.092  71.879813     19.559     0.0986      0.871   11.32208   11.31100 1.3331e-01     2.3183     3.4498    42.2126   999.8169  0.000e+00
     13.800     9.8591     9.8615    103.181  71.940807     19.628     0.0966      0.853   11.32218   11.31111 1.3649e-01     2.2971     3.4434    42.2807   999.8172  0.000e+00
     13.838     9.8581     9.8605    103.184  71.940807     19.682     0.0937      0.828   11.32245   11.31137 1.3383e-01     2.3268     3.4371    42.3473   999.8175  0.000e+00
     13.878     9.8569     9.8593    103.187  71.940808     19.739     0.0919      0.812   11.32278   11.31170 1.3522e-01     2.3141     3.4297    42.4258   999.8177  0.000e+00
     13.920     9.8561     9.8585    103.190  71.940809     19.800     0.0989      0.874   11.32299   11.31192 1.3303e-01     2.2971     3.4343    42.3769   999.8180  0.000e+00
     13.963     9.8556     9.8580    103.191  71.940809     19.860     0.1023      0.903   11.32312   11.31204 1.3303e-01     2.3056     3.4519    42.1903   999.8183  0.000e+00
     13.996     9.8550     9.8574    103.324  72.032299     19.907     0.1029      0.908   11.32327   11.31220 1.3227e-01     2.3374     3.4533    42.1755   999.8185  0.000e+00
     14.012     9.8543     9.8567    103.195  71.940810     19.929     0.1041      0.920   11.32346   11.31239 1.3515e-01     2.3374     3.4446    42.2673   999.8186  0.000e+00
     14.040     9.8542     9.8565    103.196  71.940810     19.970     0.1016      0.897   11.32351   11.31243 1.3627e-01     2.3035     3.4508    42.2022   999.8187  0.000e+00
     14.079     9.8548     9.8571    103.325  72.032300     20.025     0.0984      0.869   11.32335   11.31227 1.3484e-01     2.2759     3.4542    42.1667   999.8189  0.000e+00
     14.102     9.8543     9.8567    103.414  72.093294     20.057     0.1000      0.883   11.32347   11.31240 1.3497e-01     2.2272     3.4908    41.7817   999.8191  0.000e+00
     14.116     9.8538     9.8562    103.328  72.032300     20.078     0.0953      0.841   11.32360   11.31252 1.3343e-01     2.2357     3.4921    41.7684   999.8192  0.000e+00
     14.156     9.8542     9.8565    103.327  72.032300     20.134     0.0871      0.769   11.32350   11.31243 1.3602e-01     2.2463     3.5055    41.6292   999.8193  0.000e+00
     14.208     9.8546     9.8569    103.457  72.123791     20.209     0.0886      0.783   11.32339   11.31232 1.3487e-01     2.2463     3.4978    41.7091   999.8196  0.000e+00
     14.251     9.8535     9.8559    103.460  72.123792     20.270     0.0945      0.834   11.32367   11.31260 1.3319e-01     2.2420     3.5066    41.6173   999.8199  0.000e+00
     14.278     9.8520     9.8543    103.333  72.032302     20.307     0.0976      0.862   11.32410   11.31302 1.3420e-01     2.1721     3.5234    41.4426   999.8201  0.000e+00
     14.312     9.8511     9.8535    103.336  72.032302     20.356     0.1005      0.888   11.32433   11.31326 1.3191e-01     2.1869     3.5266    41.4101   999.8203  0.000e+00
     14.356     9.8507     9.8531    103.556  72.184787     20.418     0.0967      0.854   11.32442   11.31334 1.3637e-01     2.1636     3.5478    41.1909   999.8207  0.000e+00
     14.388     9.8502     9.8525    103.557  72.184787     20.465     0.0944      0.833   11.32457   11.31350 1.3206e-01     2.1721     3.5510    41.1583   999.8209  0.000e+00
     14.424     9.8493     9.8517    103.472  72.123794     20.515     0.0989      0.874   11.32479   11.31372 1.3665e-01     2.1593     3.5626    41.0384   999.8211  0.000e+00
     14.466     9.8489     9.8512    103.561  72.184788     20.576     0.1001      0.884   11.32492   11.31384 1.3328e-01     2.1805     3.5663    41.0014   999.8213  0.000e+00
     14.506     9.8486     9.8510    103.474  72.123795     20.632     0.0949      0.838   11.32498   11.31391 1.3512e-01     2.1699     3.5784    40.8770   999.8215  0.000e+00
     14.529     9.8479     9.8503    103.564  72.184789     20.665     0.0930      0.821   11.32517   11.31409 1.3346e-01     2.1127     3.5754    40.9081   999.8217  0.000e+00
     14.550     9.8477     9.8501    103.565  72.184789     20.695     0.0897      0.792   11.32523   11.31415 1.3374e-01     2.1127     3.5639    41.0251   999.8218  0.000e+00
     14.591     9.8478     9.8502    103.564  72.184789     20.753     0.0941      0.831   11.32520   11.31412 1.3618e-01     2.1509     3.5806    40.8548   999.8220  0.000e+00
     14.635     9.8478     9.8501    103.696  72.276281     20.815     0.0926      0.818   11.32521   11.31413 1.3500e-01     2.1487     3.6127    40.5276   999.8223  0.000e+00
     14.666     9.8468     9.8492    103.699  72.276281     20.861     0.0931      0.822   11.32546   11.31438 1.3481e-01     2.1233     3.6030    40.6268   999.8225  0.000e+00
     14.699     9.8459     9.8483    103.701  72.276281     20.907     0.0886      0.782   11.32571   11.31463 1.3276e-01     2.1233     3.6158    40.4965   999.8227  0.000e+00
     14.739     9.8451     9.8475    103.835  72.367773     20.964     0.0843      0.744   11.32591   11.31483 1.3291e-01     2.1169     3.6236    40.4180   999.8230  0.000e+00
     14.772     9.8444     9.8468    103.925  72.428768     21.011     0.0849      0.749   11.32609   11.31501 1.3056e-01     2.1318     3.6294    40.3588   999.8233  0.000e+00
     14.798     9.8439     9.8463    103.926  72.428769     21.048     0.0866      0.765   11.32623   11.31516 1.3506e-01     2.0724     3.6192    40.4624   999.8234  0.000e+00
     14.819     9.8435     9.8459    103.927  72.428769     21.078     0.0833      0.735   11.32634   11.31526 1.3173e-01     2.0809     3.6334    40.3188   999.8236  0.000e+00
     14.825     9.8432     9.8455    103.841  72.367774     21.086     0.0871      0.769   11.32644   11.31536 1.3309e-01     2.1063     3.6427    40.2255   999.8236  0.000e+00
     14.822     9.8431     9.8455    103.929  72.428769     21.082     0.0898      0.793   11.32645   11.31537 1.3553e-01     2.1275     3.6353    40.2996   999.8236  0.000e+00
     14.827     9.8440     9.8463    103.838  72.367774     21.089     0.0864      0.763   11.32622   11.31514 1.3531e-01     2.1530     3.6334    40.3188   999.8235  0.000e+00
     14.838     9.8457     9.8480    103.921  72.428768     21.104     0.0919      0.812   11.32576   11.31469 1.3404e-01     2.2081     3.6567    40.0849   999.8235  0.000e+00
     14.844     9.8493     9.8517    103.910  72.428768     21.114     0.0892      0.788   11.32478   11.31370 1.3258e-01     2.2187     3.6596    40.0553   999.8232  0.000e+00
     14.849     9.8540     9.8564    103.896  72.428767     21.120     0.0843      0.744   11.32353   11.31246 1.3718e-01     2.2145     3.6639    40.0123   999.8228  0.000e+00
     14.843     9.8569     9.8593    104.019  72.520258     21.112     0.0853      0.753   11.32275   11.31167 1.3264e-01     2.2145     3.6607    40.0449   999.8226  0.000e+00
     14.839     9.8574     9.8598    104.017  72.520258     21.106     0.0842      0.744   11.32261   11.31153 1.3212e-01     2.1721     3.6822    39.8302   999.8225  0.000e+00
     14.841     9.8574     9.8598    103.886  72.428766     21.109     0.0856      0.756   11.32261   11.31154 1.3429e-01     2.1509     3.6936    39.7162   999.8225  0.000e+00
     14.852     9.8566     9.8590    103.888  72.428766     21.125     0.0809      0.715   11.32283   11.31176 1.3432e-01     2.1509     3.7023    39.6303   999.8226  0.000e+00
     14.872     9.8577     9.8600    103.885  72.428766     21.153     0.0799      0.705   11.32255   11.31148 1.3429e-01     2.1615     3.7010    39.6437   999.8226  0.000e+00
     14.893     9.8578     9.8602    104.016  72.520258     21.182     0.0800      0.707   11.32250   11.31142 1.3380e-01     2.2547     3.7027    39.6259   999.8227  0.000e+00
     14.904     9.8548     9.8571    104.025  72.520259     21.198     0.0831      0.734   11.32333   11.31225 1.3487e-01     2.3205     3.7104    39.5504   999.8230  0.000e+00
     14.912     9.8494     9.8518    104.041  72.520260     21.211     0.0777      0.686   11.32476   11.31368 1.3395e-01     2.4307     3.7155    39.5000   999.8236  0.000e+00
     14.909     9.8471     9.8495    103.917  72.428769     21.206     0.0844      0.745   11.32537   11.31430 1.3851e-01     2.4646     3.7141    39.5134   999.8237  0.000e+00
     14.912     9.8481     9.8504    104.045  72.520261     21.210     0.0809      0.715   11.32512   11.31404 1.3460e-01     2.3841     3.7194    39.4615   999.8237  0.000e+00
     14.916     9.8503     9.8527    104.038  72.520260     21.215     0.0819      0.723   11.32451   11.31344 1.3361e-01     2.3735     3.7468    39.1921   999.8235  0.000e+00
