* Sea-Bird SBE19plus Data File:
* FileName = C:\Users\instrument\Desktop\Iola Rosa. CTD Casts\February 2024\Feb143.hex
* Software Version 1.59
* Temperature SN =  4268
* Conductivity SN =  4268
* System UpLoad Time = Feb 26 2024 13:59:39
* ds
* SeacatPlus V 1.6  SERIAL NO. 4268    26 Feb 2024  13:53:56
* vbatt = 12.7, vlith =  7.9, ioper =  61.6 ma, ipump =  85.0 ma,
* iext01 =  39.7 ma
* iext23 =  52.7 ma
*
* status = not logging
* number of scans to average = 1
* samples = 213406, free = 227668, casts = 152
* mode = profile, minimum cond freq = 2567, pump delay = 60 sec
* autorun = no, ignore magnetic switch = no
* battery type = alkaline, battery cutoff =  7.3 volts
* pressure sensor = strain gauge, range = 508.0
* SBE 38 = no, Gas Tension Device = no
* Ext Volt 0 = yes, Ext Volt 1 = yes, Ext Volt 2 = yes, Ext Volt 3 = yes
* echo commands = yes
* output format = raw HEX

* S>
*
* SeacatPlus V 1.6  SERIAL NO. 4268    26 Feb 2024  13:55:03
* temperature:  06-dec-05
*     TA0 = 1.161749e-03
*     TA1 = 2.891779e-04
*     TA2 = -3.393560e-06
*     TA3 = 2.889319e-07
*     TOFFSET = 0.000000e+00
* conductivity:  06-dec-05
*     G = -9.977815e-01
*     H = 1.528486e-01
*     I = -4.694078e-04
*     J = 6.039801e-05
*     CF0 = 2.561972e+03
*     CPCOR = -9.570000e-08
*     CTCOR = 3.250000e-06
*     CSLOPE = 1.000000e+00
* pressure S/N = 1980, range = 508 psia:  22-nov-05
*     PA0 = 1.166340e-01
*     PA1 = 1.562008e-03
*     PA2 = 7.521856e-12
*     PTCA0 = 5.244793e+05
*     PTCA1 = 6.705477e+00
*     PTCA2 = -1.525623e-01
*     PTCB0 = 2.485325e+01
*     PTCB1 = -3.500000e-04
*     PTCB2 = 0.000000e+00
*     PTEMPA0 = -7.187026e+01
*     PTEMPA1 = 4.819360e+01
*     PTEMPA2 = -2.287845e-02
*     POFFSET = 0.000000e+00
* volt 0: offset = -4.716333e-02, slope = 1.249825e+00
* volt 1: offset = -4.705000e-02, slope = 1.250722e+00
* volt 2: offset = -4.720000e-02, slope = 1.250906e+00
* volt 3: offset = 0.000000e+00, slope = 1.000000e+00
*     EXTFREQSF = 1.000004e+00
* dh
* cast 143 22 Feb 2024 09:31:04 samples 200708 to 201615, avg = 1, stop = mag switch

* S>
# nquan = 16
# nvalues = 760                                   
# units = specified
# name 0 = depFM: Depth [fresh water, m]
# name 1 = tv290C: Temperature [ITS-90, deg C]
# name 2 = tv268C: Temperature [IPTS-68, deg C]
# name 3 = specc: Specific Conductance [uS/cm]
# name 4 = c0uS/cm: Conductivity [uS/cm]
# name 5 = prdE: Pressure, Strain Gauge [psi]
# name 6 = sbeox0Mg/L: Oxygen, SBE 43 [mg/l]
# name 7 = sbeox0PS: Oxygen, SBE 43 [% saturation]
# name 8 = oxsolMg/L: Oxygen Saturation, Garcia & Gordon [mg/l]
# name 9 = oxsatMg/L: Oxygen Saturation, Weiss [mg/l]
# name 10 = par: PAR/Irradiance, Biospherical/Licor
# name 11 = flCM: Fluorescence, Chelsea Mini Chl Con [ug/l]
# name 12 = bat: Beam Attenuation, Chelsea/Seatech [1/m]
# name 13 = xmiss: Beam Transmission, Chelsea/Seatech [%]
# name 14 = density00: Density [density, kg/m^3]
# name 15 = flag:  0.000e+00
# span 0 =     -0.634,     15.134                 
# span 1 =     9.8450,    22.7236                 
# span 2 =     9.8473,    22.7290                 
# span 3 =     -2.299,    295.656                 
# span 4 =  -2.029214, 277.048872                 
# span 5 =     -0.902,     21.525                 
# span 6 =    -0.6501,     9.4426                 
# span 7 =     -6.296,    109.402                 
# span 8 =    8.62070,   11.32593                 
# span 9 =    8.60250,   11.31485                 
# span 10 = 8.8294e-02, 6.2143e+02                
# span 11 =    -0.3612,    38.7382                
# span 12 =     1.4383,    11.1441                
# span 13 =     6.1666,    69.7981                
# span 14 =   997.6445,   999.8249                
# span 15 = 0.0000e+00, 0.0000e+00                
# interval = seconds: 0.25
# start_time = Feb 22 2024 09:31:04 [Instrument's time stamp, header]
# bad_flag = -9.990e-29
# <Sensors count="7" >
#   <sensor Channel="1" >
#     <!-- Count, Temperature -->
#     <TemperatureSensor SensorID="58" >
#       <SerialNumber>4268</SerialNumber>
#       <CalibrationDate>06-Dec-05</CalibrationDate>
#       <A0>1.16174900e-003</A0>
#       <A1>2.89177900e-004</A1>
#       <A2>-3.39356000e-006</A2>
#       <A3>2.88931900e-007</A3>
#       <Slope>1.00000000</Slope>
#       <Offset>0.0000</Offset>
#     </TemperatureSensor>
#   </sensor>
#   <sensor Channel="2" >
#     <!-- Frequency 0, Conductivity -->
#     <ConductivitySensor SensorID="3" >
#       <SerialNumber>4268</SerialNumber>
#       <CalibrationDate>06-Dec-05</CalibrationDate>
#       <UseG_J>1</UseG_J>
#       <!-- Cell const and series R are applicable only for wide range sensors. -->
#       <SeriesR>0.0000</SeriesR>
#       <CellConst>2000.0000</CellConst>
#       <ConductivityType>0</ConductivityType>
#       <Coefficients equation="0" >
#         <A>0.00000000e+000</A>
#         <B>0.00000000e+000</B>
#         <C>0.00000000e+000</C>
#         <D>0.00000000e+000</D>
#         <M>0.0</M>
#         <CPcor>-9.57000000e-008</CPcor>
#       </Coefficients>
#       <Coefficients equation="1" >
#         <G>-9.97781500e-001</G>
#         <H>1.52848600e-001</H>
#         <I>-4.69407800e-004</I>
#         <J>6.03980100e-005</J>
#         <CPcor>-9.57000000e-008</CPcor>
#         <CTcor>3.2500e-006</CTcor>
#         <!-- WBOTC not applicable unless ConductivityType = 1. -->
#         <WBOTC>0.00000000e+000</WBOTC>
#       </Coefficients>
#       <Slope>1.00000000</Slope>
#       <Offset>0.00000</Offset>
#     </ConductivitySensor>
#   </sensor>
#   <sensor Channel="3" >
#     <!-- Count, Pressure, Strain Gauge -->
#     <PressureSensor SensorID="46" >
#       <SerialNumber>4268</SerialNumber>
#       <CalibrationDate>22-Nov-05</CalibrationDate>
#       <PA0>1.16634000e-001</PA0>
#       <PA1>1.56200800e-003</PA1>
#       <PA2>7.52185600e-012</PA2>
#       <PTEMPA0>-7.18702600e+001</PTEMPA0>
#       <PTEMPA1>4.81936000e+001</PTEMPA1>
#       <PTEMPA2>-2.28784500e-002</PTEMPA2>
#       <PTCA0>5.24479300e+005</PTCA0>
#       <PTCA1>6.70547700e+000</PTCA1>
#       <PTCA2>-1.52562300e-001</PTCA2>
#       <PTCB0>2.48532500e+001</PTCB0>
#       <PTCB1>-3.50000000e-004</PTCB1>
#       <PTCB2>0.00000000e+000</PTCB2>
#       <Offset>0.000000</Offset>
#     </PressureSensor>
#   </sensor>
#   <sensor Channel="4" >
#     <!-- A/D voltage 0, Oxygen, SBE 43 -->
#     <OxygenSensor SensorID="38" >
#       <SerialNumber>0268</SerialNumber>
#       <CalibrationDate>29-Feb-20</CalibrationDate>
#       <Use2007Equation>1</Use2007Equation>
#       <CalibrationCoefficients equation="0" >
#         <!-- Coefficients for Owens-Millard equation. -->
#         <Boc>0.0000</Boc>
#         <Soc>3.1260e-001</Soc>
#         <offset>-0.4337</offset>
#         <Pcor>1.35e-004</Pcor>
#         <Tcor>0.0023</Tcor>
#         <Tau>0.0</Tau>
#       </CalibrationCoefficients>
#       <CalibrationCoefficients equation="1" >
#         <!-- Coefficients for Sea-Bird equation - SBE calibration in 2007 and later. -->
#         <Soc>5.4910e-001</Soc>
#         <offset>-0.4386</offset>
#         <A>-3.6337e-003</A>
#         <B> 1.0518e-004</B>
#         <C>-1.0368e-006</C>
#         <D0> 2.5826e+000</D0>
#         <D1> 1.92634e-004</D1>
#         <D2>-4.64803e-002</D2>
#         <E> 3.6000e-002</E>
#         <Tau20> 1.2800</Tau20>
#         <H1>-3.3000e-002</H1>
#         <H2> 5.0000e+003</H2>
#         <H3> 1.4500e+003</H3>
#       </CalibrationCoefficients>
#     </OxygenSensor>
#   </sensor>
#   <sensor Channel="5" >
#     <!-- A/D voltage 1, Transmissometer, Chelsea/Seatech -->
#     <TransChelseaSeatechWetlabCStarSensor SensorID="59" >
#       <SerialNumber>CST-612PR</SerialNumber>
#       <CalibrationDate>6/27/02</CalibrationDate>
#       <M>19.4066</M>
#       <B>-1.1062</B>
#       <PathLength>0.250</PathLength>
#     </TransChelseaSeatechWetlabCStarSensor>
#   </sensor>
#   <sensor Channel="6" >
#     <!-- A/D voltage 2, Fluorometer, Chelsea Minitracka -->
#     <FluoroChelseaMinitrackaSensor SensorID="6" >
#       <SerialNumber>175011</SerialNumber>
#       <CalibrationDate>26-Mar-97</CalibrationDate>
#       <Vacetone>0.013</Vacetone>
#       <Vacetone100>3.612</Vacetone100>
#       <Offset>0.000</Offset>
#     </FluoroChelseaMinitrackaSensor>
#   </sensor>
#   <sensor Channel="7" >
#     <!-- A/D voltage 3, PAR/Irradiance, Biospherical/Licor -->
#     <PAR_BiosphericalLicorChelseaSensor SensorID="42" >
#       <SerialNumber>6404</SerialNumber>
#       <CalibrationDate>29-Nov-05</CalibrationDate>
#       <M>-0.76668700</M>
#       <B>-3.43363000</B>
#       <CalibrationConstant>3.42000000</CalibrationConstant>
#       <Multiplier>1.00000000</Multiplier>
#       <Offset>0.00000000</Offset>
#     </PAR_BiosphericalLicorChelseaSensor>
#   </sensor>
# </Sensors>
# datcnv_date = Jun 04 2024 15:04:44, 7.26.7.129 [datcnv_vars = 15]
# datcnv_in = C:\Users\ir64\OneDrive - The University of Waikato\Documents\Sampling\CTD casts\2024.02 CTD casts\2024.02 Hex files\Feb143.hex C:\Users\ir64\OneDrive - The University of Waikato\Documents\Sampling\CTD Documents\New 4268 & 6165 con files\20200723_SBE19_4268.xmlcon
# datcnv_skipover = 0
# datcnv_ox_hysteresis_correction = yes
# datcnv_ox_tau_correction = yes
# file_type = ascii
*END*
     -0.632    19.1234    19.1280     -2.127  -1.877298     -0.899     8.2812     89.495    9.25325    9.23765 6.8766e+01     3.0603     1.4968    68.7839   998.3793  0.000e+00
     -0.632    19.1236    19.1282     -2.127  -1.877298     -0.899     8.2816     89.500    9.25320    9.23761 7.0586e+01     0.8471     1.5486    67.8985   998.3793  0.000e+00
     -0.633    19.1235    19.1281     -2.127  -1.877298     -0.900     8.2848     89.534    9.25323    9.23764 8.2980e+01    -0.1259     1.5294    68.2257   998.3793  0.000e+00
     -0.633    19.1232    19.1278     -2.024  -1.786147     -0.900     8.2885     89.574    9.25329    9.23769 1.0022e+02    -0.3612     1.4852    68.9838   998.3794  0.000e+00
     -0.632    19.1232    19.1278     -2.127  -1.877298     -0.899     8.2871     89.558    9.25329    9.23769 1.2684e+02    -0.3612     1.4502    69.5894   998.3794  0.000e+00
     -0.632    19.1231    19.1277     -2.127  -1.877298     -0.899     8.2942     89.635    9.25330    9.23771 1.4326e+02    -0.3612     1.4383    69.7981   998.3794  0.000e+00
     -0.633    19.1232    19.1278     -2.127  -1.877298     -0.900     8.2960     89.654    9.25329    9.23769 1.2247e+02    -0.3612     1.4398    69.7715   998.3794  0.000e+00
     -0.634    19.1232    19.1278     -2.127  -1.877298     -0.902     8.3011     89.710    9.25328    9.23768 2.3880e+02    -0.3612     1.4478    69.6323   998.3794  0.000e+00
     -0.634    19.1234    19.1280     -2.127  -1.877298     -0.902     8.3028     89.728    9.25325    9.23765 3.6436e+02    -0.3612     1.4563    69.4843   998.3793  0.000e+00
     -0.632    19.1237    19.1283     -2.299  -2.029214     -0.899     8.3097     89.803    9.25319    9.23759 4.6784e+02    -0.3612     1.4583    69.4487   998.3793  0.000e+00
     -0.528    19.1994    19.2041    122.974 108.719335     -0.750     8.2949     89.813    9.23576    9.22010 6.2143e+02    -0.3612     1.4588    69.4413   998.4115  0.000e+00
     -0.335    20.0435    20.0483    173.393 156.220984     -0.477     8.1526     89.787    9.08000    9.06371 5.6106e+02     0.7115     7.8613    14.0110   998.2594  0.000e+00
     -0.201    21.0814    21.0865    151.918 140.027345     -0.286     8.0076     90.005    8.89682    8.87977 5.5340e+02     4.5336    11.1441     6.1666   998.0321  0.000e+00
     -0.099    21.7838    21.7890    128.524 120.270053     -0.141     7.9598     90.691    8.77681    8.75925 3.9002e+02     5.1187     6.3144    20.6265   997.8690  0.000e+00
     -0.046    22.1842    22.1895    122.705 115.807380     -0.066     8.0024     91.881    8.70952    8.69168 2.8429e+02     4.0355     2.9590    47.7235   997.7765  0.000e+00
     -0.017    22.3995    22.4049    119.891 113.668088     -0.024     8.1087     93.486    8.67370    8.65572 2.5224e+02     3.6454     2.8763    48.7199   997.7261  0.000e+00
      0.007    22.5105    22.5159    124.563 118.374611      0.011     8.2465     95.278    8.65520    8.63713 1.4431e+02     3.0857     2.1584    58.2981   997.7022  0.000e+00
      0.009    22.5556    22.5610    144.602 137.548357      0.012     8.3906     97.032    8.64730    8.62921 1.3298e+02     2.7890     1.8833    62.4483   997.6987  0.000e+00
      0.007    22.5686    22.5740    141.251 134.397345      0.011     8.5163     98.509    8.64522    8.62712 2.7537e+02     3.3338     1.8722    62.6215   997.6945  0.000e+00
      0.009    22.5659    22.5713    139.426 132.653797      0.012     8.6072     99.555    8.64571    8.62761 2.1798e+02     3.4355     1.8069    63.6535   997.6945  0.000e+00
      0.010    22.5499    22.5553    139.763 132.929091      0.014     8.6695    100.244    8.64835    8.63026 1.7227e+02     3.1218     1.7925    63.8830   997.6983  0.000e+00
      0.006    22.5261    22.5315    139.382 132.500878      0.009     8.6908    100.445    8.65229    8.63421 3.1015e+02     3.0879     1.8016    63.7379   997.7037  0.000e+00
      0.005    22.5062    22.5116    137.284 130.451659      0.007     8.6812    100.296    8.65563    8.63757 8.6851e+01     2.6893     1.8287    63.3071   997.7076  0.000e+00
     -0.001    22.4979    22.5033    137.726 130.849258     -0.002     8.6467     99.882    8.65698    8.63893 1.2349e+02     2.4646     1.7965    63.8194   997.7096  0.000e+00
     -0.013    22.4926    22.4980    138.708 131.766817     -0.019     8.6048     99.387    8.65784    8.63979 1.6343e+02     2.5028     1.8004    63.7557   997.7111  0.000e+00
     -0.024    22.4891    22.4945    140.876 133.816180     -0.035     8.5673     98.949    8.65837    8.64032 9.7127e+01     2.3120     3.5048    41.6366   997.7127  0.000e+00
     -0.032    22.4960    22.5014    137.313 130.451663     -0.046     8.5210     98.426    8.65730    8.63925 1.6242e+02     2.1169     2.0286    60.2214   997.7098  0.000e+00
     -0.024    22.5065    22.5119    134.129 127.454655     -0.035     8.4865     98.045    8.65564    8.63758 3.4250e+02     2.2844     1.8134    63.5499   997.7063  0.000e+00
     -0.006    22.5275    22.5329    131.368 124.886139     -0.008     8.5923     99.307    8.65223    8.63416 6.4552e+01     2.1509     1.9003    62.1833   997.7005  0.000e+00
      0.012    22.5502    22.5556    129.409 123.082256      0.017     8.6885    100.462    8.64853    8.63044 8.7551e+01     2.0237     1.8301    63.2849   997.6946  0.000e+00
      0.022    22.5671    22.5725    127.628 121.431386      0.031     8.6735    100.321    8.64578    8.62768 1.7797e+02     2.0110     1.8259    63.3515   997.6902  0.000e+00
      0.020    22.5770    22.5824    130.878 124.549792      0.028     8.5551     98.971    8.64408    8.62597 2.6208e+02     2.0682     1.8568    62.8644   997.6890  0.000e+00
      0.016    22.5837    22.5891    129.992 123.724281      0.023     8.3583     96.706    8.64299    8.62488 2.8383e+02     1.8583     1.8052    63.6802   997.6871  0.000e+00
      0.006    22.5894    22.5948    128.242 122.073363      0.009     8.1143     93.893    8.64209    8.62398 2.0086e+02     1.9580     1.7976    63.8016   997.6851  0.000e+00
      0.001    22.5911    22.5965    126.761 120.667134      0.001     7.8401     90.722    8.64184    8.62373 2.7842e+02     1.9304     1.7994    63.7720   997.6842  0.000e+00
      0.001    22.5920    22.5974    126.597 120.514288      0.001     7.5591     87.473    8.64169    8.62357 1.1715e+02     2.0979     1.7788    64.1022   997.6839  0.000e+00
      0.002    22.5968    22.6023    124.241 118.282880      0.003     7.2779     84.226    8.64095    8.62283 1.3469e+02     2.5282     1.7978    63.7986   997.6820  0.000e+00
      0.007    22.6040    22.6094    123.709 117.793835      0.011     7.0654     81.777    8.63978    8.62166 9.8358e+01     2.2251     1.7996    63.7690   997.6801  0.000e+00
      0.014    22.6077    22.6131    126.138 120.116891      0.020     6.9422     80.357    8.63912    8.62099 1.1844e+02     2.2781     1.7724    64.2043   997.6801  0.000e+00
      0.016    22.6049    22.6104    125.600 119.597237      0.023     6.8757     79.584    8.63958    8.62146 7.3845e+01     2.4010     1.7849    64.0044   997.6806  0.000e+00
      0.016    22.6006    22.6061    131.359 125.069564      0.023     6.8345     79.101    8.64016    8.62204 1.5762e+02     2.5664     1.7786    64.1051   997.6836  0.000e+00
      0.014    22.5986    22.6040    135.251 128.769574      0.020     6.8127     78.847    8.64041    8.62229 1.7478e+02     2.5621     1.7784    64.1081   997.6854  0.000e+00
      0.012    22.5988    22.6043    125.295 119.291567      0.017     6.7979     78.675    8.64060    8.62248 1.4231e+02     2.5430     1.7699    64.2443   997.6819  0.000e+00
      0.009    22.5984    22.6038    120.930 115.134877      0.012     6.7720     78.373    8.64077    8.62265 1.6168e+02     2.4773     1.7805    64.0740   997.6805  0.000e+00
      0.010    22.5965    22.6019    119.747 114.004162      0.014     6.7412     78.014    8.64111    8.62299 1.7004e+02     2.5112     1.7894    63.9319   997.6805  0.000e+00
      0.006    22.5951    22.6005    118.948 113.240201      0.009     6.6785     77.285    8.64135    8.62323 1.1144e+02     2.5600     1.7751    64.1614   997.6805  0.000e+00
      0.010    22.5936    22.5990    118.888 113.179086      0.014     6.6107     76.499    8.64161    8.62349 1.4521e+02     2.5664     1.8035    63.7068   997.6809  0.000e+00
      0.013    22.5914    22.5968    120.691 114.890395      0.018     6.5330     75.597    8.64192    8.62381 9.7015e+01     2.5515     1.8113    63.5825   997.6820  0.000e+00
      0.010    22.5902    22.5956    122.524 116.632413      0.014     6.4499     74.634    8.64208    8.62397 1.7168e+02     2.5960     1.7967    63.8149   997.6829  0.000e+00
      0.012    22.5900    22.5955    122.846 116.938045      0.017     6.3750     73.767    8.64210    8.62399 1.7558e+02     2.5812     1.7993    63.7735   997.6831  0.000e+00
      0.011    22.5902    22.5956    122.011 116.143410      0.015     6.3112     73.028    8.64209    8.62398 1.8942e+02     2.6490     1.8215    63.4211   997.6828  0.000e+00
      0.011    22.5905    22.5959    120.533 114.737594      0.015     6.2693     72.543    8.64208    8.62397 1.6501e+02     2.7254     1.8015    63.7394   997.6822  0.000e+00
      0.007    22.5895    22.5950    119.925 114.156960      0.011     6.2550     72.376    8.64225    8.62414 1.9103e+02     2.7084     1.7996    63.7690   997.6822  0.000e+00
      0.012    22.5875    22.5929    120.188 114.401437      0.017     6.2621     72.456    8.64259    8.62448 7.8109e+01     2.6660     1.7934    63.8682   997.6828  0.000e+00
      0.012    22.5857    22.5912    120.449 114.645916      0.017     6.2857     72.727    8.64287    8.62475 8.1791e+01     2.6172     1.8016    63.7379   997.6833  0.000e+00
      0.012    22.5853    22.5907    123.564 117.610455      0.017     6.3227     73.155    8.64287    8.62476 9.1195e+01     2.6384     1.7923    63.8860   997.6845  0.000e+00
      0.015    22.5858    22.5913    123.049 117.121429      0.021     6.3733     73.741    8.64279    8.62468 8.8763e+01     2.6469     1.8088    63.6224   997.6842  0.000e+00
      0.011    22.5863    22.5917    126.613 120.514291      0.015     6.4383     74.494    8.64264    8.62453 1.8795e+02     2.7126     1.7867    63.9748   997.6853  0.000e+00
      0.012    22.5871    22.5925    131.653 125.314177      0.017     6.5101     75.328    8.64238    8.62427 2.0091e+02     2.7360     1.7797    64.0874   997.6868  0.000e+00
      0.012    22.5891    22.5945    130.170 123.907722      0.017     6.5854     76.201    8.64209    8.62398 1.7949e+02     2.7784     1.7939    63.8593   997.6859  0.000e+00
      0.011    22.5917    22.5971    125.314 119.291570      0.015     6.6611     77.080    8.64178    8.62366 1.6339e+02     2.7741     1.7663    64.3021   997.6836  0.000e+00
      0.012    22.5941    22.5995    122.964 117.060298      0.017     6.7230     77.800    8.64143    8.62331 1.0006e+02     2.7338     1.7624    64.3642   997.6822  0.000e+00
      0.011    22.5954    22.6008    121.901 116.051722      0.015     6.7849     78.518    8.64124    8.62313 1.2839e+02     2.7508     1.7714    64.2206   997.6815  0.000e+00
      0.012    22.5952    22.6006    121.035 115.226561      0.017     6.8128     78.840    8.64129    8.62317 1.4011e+02     2.7550     1.7803    64.0770   997.6813  0.000e+00
      0.013    22.5944    22.5999    121.422 115.593295      0.018     6.8094     78.800    8.64141    8.62329 7.8504e+01     2.7699     1.8027    63.7202   997.6816  0.000e+00
      0.011    22.5931    22.5985    122.100 116.235096      0.015     6.7860     78.527    8.64162    8.62351 7.3845e+01     2.8462     1.7919    63.8919   997.6821  0.000e+00
      0.014    22.5917    22.5971    122.007 116.143410      0.020     6.7442     78.042    8.64185    8.62374 8.9724e+01     2.8271     1.7851    64.0015   997.6824  0.000e+00
      0.015    22.5904    22.5958    121.496 115.654420      0.021     6.7056     77.592    8.64208    8.62396 2.0741e+02     2.8398     1.8060    63.6669   997.6826  0.000e+00
      0.014    22.5871    22.5925    121.408 115.562737      0.020     6.6601     77.061    8.64262    8.62450 2.1456e+02     2.8377     1.7957    63.8312   997.6833  0.000e+00
      0.014    22.5833    22.5888    122.381 116.479601      0.020     6.6202     76.595    8.64322    8.62511 1.3816e+02     2.8080     1.7945    63.8505   997.6845  0.000e+00
      0.014    22.5816    22.5870    123.317 117.365942      0.020     6.5933     76.280    8.64348    8.62537 8.6971e+01     2.8292     1.7890    63.9378   997.6852  0.000e+00
      0.016    22.5814    22.5869    123.061 117.121430      0.023     6.5705     76.017    8.64352    8.62541 7.7752e+01     2.8759     1.7769    64.1318   997.6852  0.000e+00
      0.016    22.5819    22.5873    122.128 116.235101      0.023     6.5431     75.700    8.64347    8.62536 8.3763e+01     2.8568     1.7696    64.2487   997.6848  0.000e+00
      0.018    22.5804    22.5858    120.719 114.890400      0.026     6.5181     75.409    8.64374    8.62563 8.6772e+01     2.7805     1.7947    63.8475   997.6846  0.000e+00
      0.017    22.5775    22.5829    120.470 114.645919      0.025     6.4944     75.130    8.64423    8.62612 1.6984e+02     2.7572     1.8211    63.4270   997.6852  0.000e+00
      0.016    22.5750    22.5804    123.945 117.946671      0.023     6.4654     74.791    8.64456    8.62646 1.5423e+02     2.7169     1.8050    63.6831   997.6870  0.000e+00
      0.014    22.5741    22.5795    124.300 118.282889      0.020     6.4307     74.389    8.64470    8.62659 7.6673e+01     2.6766     1.7790    64.0977   997.6873  0.000e+00
      0.016    22.5753    22.5808    125.518 119.444412      0.023     6.3968     73.998    8.64447    8.62636 7.0150e+01     2.6936     1.7829    64.0355   997.6875  0.000e+00
      0.019    22.5760    22.5814    125.259 119.199875      0.028     6.3695     73.684    8.64436    8.62626 8.6712e+01     2.7317     1.7851    64.0015   997.6872  0.000e+00
      0.024    22.5751    22.5805    125.197 119.138742      0.034     6.3622     73.598    8.64452    8.62641 9.0301e+01     2.7911     1.7869    63.9719   997.6875  0.000e+00
      0.024    22.5715    22.5770    128.387 122.165085      0.034     6.3641     73.616    8.64503    8.62693 1.6860e+02     2.7572     1.7899    63.9245   997.6894  0.000e+00
      0.024    22.5589    22.5643    135.814 129.197735      0.034     6.3745     73.720    8.64695    8.62885 2.1378e+02     2.7423     1.7736    64.1851   997.6949  0.000e+00
      0.022    22.5419    22.5473    127.502 121.247975      0.031     6.3743     73.692    8.64995    8.63186 8.3552e+01     2.7444     1.7539    64.5019   997.6960  0.000e+00
      0.033    22.5393    22.5447    122.559 116.540743      0.046     6.3649     73.579    8.65048    8.63240 1.6497e+02     2.7423     1.7966    63.8164   997.6949  0.000e+00
      0.084    22.5470    22.5524    123.150 117.121444      0.120     6.3591     73.523    8.64921    8.63112 1.7490e+02     2.7741     1.7620    64.3716   997.6936  0.000e+00
      0.116    22.5512    22.5566    153.495 145.994251      0.165     6.3960     73.961    8.64782    8.62973 1.6596e+02     2.7699     1.7714    64.2206   997.7033  0.000e+00
      0.121    22.5523    22.5577    183.311 174.356579      0.171     6.4815     74.957    8.64694    8.62885 1.6973e+02     2.7656     1.7724    64.2043   997.7136  0.000e+00
      0.104    22.5111    22.5165    202.055 192.018846      0.148     6.5794     76.033    8.65330    8.63524 1.0361e+02     2.8250     1.7914    63.9008   997.7297  0.000e+00
      0.081    22.4323    22.4377    179.898 170.678944      0.115     6.7253     77.598    8.66687    8.64886 1.6907e+02     2.8992     1.8077    63.6402   997.7400  0.000e+00
      0.063    22.3714    22.3767    161.961 153.463933      0.090     6.9024     79.544    8.67741    8.65944 1.7370e+02     2.9077     1.8200    63.4448   997.7477  0.000e+00
      0.066    22.3450    22.3503    146.667 138.894663      0.093     7.0838     81.590    8.68215    8.66420 1.2175e+02     2.9310     1.8075    63.6432   997.7484  0.000e+00
      0.063    22.3499    22.3553    143.325 135.743443      0.090     7.2266     83.242    8.68140    8.66345 1.1242e+02     2.9437     1.7851    64.0000   997.7461  0.000e+00
      0.072    22.3785    22.3839    152.246 144.280388      0.103     7.3169     84.331    8.67644    8.65847 1.5243e+02     2.9013     1.8012    63.7439   997.7427  0.000e+00
      0.071    22.3982    22.4036    178.541 169.269353      0.101     7.3422     84.660    8.67256    8.65458 1.6164e+02     2.8589     1.7995    63.7705   997.7474  0.000e+00
      0.074    22.4115    22.4169    195.720 185.608435      0.106     7.3127     84.345    8.66995    8.65195 1.0509e+02     2.8738     1.8087    63.6239   997.7504  0.000e+00
      0.078    22.4313    22.4367    186.395 176.839473      0.111     7.2369     83.500    8.66689    8.64888 1.1147e+02     2.9543     1.8362    63.1886   997.7425  0.000e+00
      0.082    22.4428    22.4482    170.140 161.456966      0.117     7.1286     82.266    8.66536    8.64734 9.6971e+01     3.0179     1.8155    63.5158   997.7342  0.000e+00
      0.088    22.4410    22.4464    165.402 156.954736      0.125     6.9999     80.776    8.66577    8.64775 9.6971e+01     3.0433     1.8124    63.5647   997.7329  0.000e+00
      0.073    22.4359    22.4412    207.323 196.713007      0.104     6.8648     79.219    8.66564    8.64763 1.0380e+02     3.0624     1.8381    63.1590   997.7489  0.000e+00
      0.065    22.4259    22.4313    186.352 176.778168      0.092     6.7339     77.689    8.66778    8.64977 9.3910e+01     3.0264     1.8188    63.4640   997.7437  0.000e+00
      0.065    22.4204    22.4257    169.091 160.384927      0.092     6.6155     76.311    8.66911    8.65110 9.1237e+01     2.9098     1.7806    64.0726   997.7389  0.000e+00
      0.063    22.4139    22.4192    159.911 151.657487      0.090     6.5120     75.106    8.67040    8.65240 9.4709e+01     2.8992     1.7764    64.1407   997.7372  0.000e+00
      0.062    22.4018    22.4072    165.474 156.893508      0.089     6.4206     74.036    8.67227    8.65428 1.0765e+02     2.9607     1.7700    64.2428   997.7419  0.000e+00
      0.066    22.3809    22.3863    174.274 165.163666      0.093     6.3431     73.115    8.67553    8.65755 1.1579e+02     2.9946     1.8154    63.5173   997.7498  0.000e+00
      0.063    22.3629    22.3683    181.035 171.506407      0.090     6.2741     72.296    8.67837    8.66040 1.2497e+02     3.0115     1.7820    64.0503   997.7564  0.000e+00
      0.066    22.3526    22.3579    181.625 172.027402      0.093     6.2065     71.503    8.68007    8.66212 1.3011e+02     3.0009     1.7794    64.0918   997.7590  0.000e+00
      0.065    22.3463    22.3517    185.079 175.276225      0.092     6.1497     70.841    8.68103    8.66308 1.2860e+02     3.0306     1.7625    64.3628   997.7616  0.000e+00
      0.060    22.3397    22.3450    184.652 174.847110      0.086     6.0949     70.200    8.68215    8.66420 1.5647e+02     3.0963     1.7721    64.2088   997.7630  0.000e+00
      0.061    22.3327    22.3380    181.086 171.445132      0.087     6.0412     69.572    8.68339    8.66545 1.5135e+02     3.1091     1.7677    64.2798   997.7634  0.000e+00
      0.059    22.3268    22.3321    180.040 170.433846      0.084     5.9931     69.010    8.68440    8.66646 1.5951e+02     3.1960     1.7814    64.0592   997.7643  0.000e+00
      0.061    22.3223    22.3276    178.924 169.361323      0.087     5.9422     68.418    8.68518    8.66724 1.7164e+02     3.1366     1.8292    63.2997   997.7650  0.000e+00
      0.061    22.3182    22.3235    179.458 169.851615      0.087     5.9076     68.014    8.68585    8.66791 1.6630e+02     3.1197     1.7943    63.8534   997.7661  0.000e+00
      0.060    22.3137    22.3191    178.860 169.269399      0.086     5.8713     67.590    8.68660    8.66867 1.5115e+02     3.0158     1.7641    64.3376   997.7669  0.000e+00
      0.060    22.3086    22.3140    179.656 170.004839      0.086     5.8402     67.226    8.68743    8.66950 1.5697e+02     2.9246     1.7567    64.4560   997.7684  0.000e+00
      0.061    22.3038    22.3092    180.128 170.433858      0.087     5.8089     66.860    8.68821    8.67029 1.4130e+02     2.9098     1.7596    64.4101   997.7697  0.000e+00
      0.060    22.2989    22.3042    182.090 172.272608      0.086     5.7838     66.564    8.68899    8.67107 1.0760e+02     2.9352     1.7576    64.4427   997.7715  0.000e+00
      0.059    22.2934    22.2988    179.811 170.096778      0.084     5.7557     66.234    8.68995    8.67204 9.7685e+01     3.0497     1.7812    64.0637   997.7719  0.000e+00
      0.061    22.2884    22.2937    178.340 168.687212      0.087     5.7282     65.911    8.69083    8.67291 9.0260e+01     3.0221     1.7947    63.8475   997.7726  0.000e+00
      0.062    22.2835    22.2889    177.905 168.258234      0.089     5.7021     65.605    8.69165    8.67374 8.9232e+01     2.9797     1.8016    63.7379   997.7735  0.000e+00
      0.066    22.2795    22.2848    180.383 170.587094      0.093     5.6733     65.269    8.69227    8.67436 9.7595e+01     2.9670     1.7625    64.3628   997.7754  0.000e+00
      0.068    22.2745    22.2799    183.221 173.253355      0.096     5.6474     64.965    8.69303    8.67512 1.0696e+02     2.9162     1.7585    64.4279   997.7775  0.000e+00
      0.065    22.2695    22.2748    188.201 177.943142      0.092     5.6228     64.676    8.69375    8.67585 1.1986e+02     2.9289     1.7621    64.3702   997.7804  0.000e+00
      0.066    22.2640    22.2694    187.931 177.667246      0.093     5.5989     64.395    8.69466    8.67677 1.4127e+02     3.0179     1.7849    64.0044   997.7816  0.000e+00
      0.061    22.2592    22.2645    184.804 174.693901      0.087     5.5714     64.072    8.69555    8.67765 1.4395e+02     3.0985     1.7986    63.7853   997.7816  0.000e+00
      0.060    22.2548    22.2601    178.370 168.595305      0.086     5.5417     63.724    8.69644    8.67855 1.4637e+02     3.1345     1.8025    63.7231   997.7803  0.000e+00
      0.060    22.2511    22.2564    176.471 166.787532      0.086     5.5167     63.432    8.69709    8.67920 1.6407e+02     3.2214     1.7689    64.2606   997.7805  0.000e+00
      0.066    22.2478    22.2531    180.439 170.525823      0.093     5.4905     63.127    8.69755    8.67967 1.7059e+02     3.1663     1.7443    64.6574   997.7827  0.000e+00
      0.067    22.2439    22.2493    187.394 177.084815      0.095     5.4772     62.970    8.69803    8.68014 1.5142e+02     3.2108     1.7553    64.4797   997.7860  0.000e+00
      0.067    22.2390    22.2443    191.924 181.346231      0.095     5.4461     62.608    8.69874    8.68086 1.1384e+02     3.2405     1.7467    64.6174   997.7888  0.000e+00
      0.065    22.2350    22.2403    193.173 182.511380      0.092     5.4274     62.388    8.69938    8.68150 1.5177e+02     3.1387     1.7454    64.6396   997.7901  0.000e+00
      0.065    22.2311    22.2364    188.970 178.525632      0.092     5.4044     62.118    8.70013    8.68226 1.6524e+02     3.1027     1.7488    64.5849   997.7895  0.000e+00
      0.063    22.2274    22.2328    185.448 175.184338      0.090     5.3788     61.820    8.70083    8.68296 1.4362e+02     3.0963     1.7500    64.5641   997.7891  0.000e+00
      0.061    22.2232    22.2285    183.777 173.590521      0.087     5.3576     61.571    8.70158    8.68371 1.3728e+02     3.1197     1.7756    64.1525   997.7895  0.000e+00
      0.065    22.2187    22.2240    186.878 176.502403      0.092     5.3428     61.395    8.70226    8.68439 1.4732e+02     3.1663     1.8065    63.6595   997.7916  0.000e+00
      0.061    22.2133    22.2187    191.574 180.916999      0.087     5.3132     61.050    8.70304    8.68518 1.4208e+02     3.1493     1.8207    63.4329   997.7945  0.000e+00
      0.060    22.2086    22.2139    192.794 182.051461      0.086     5.2939     60.823    8.70381    8.68595 1.2934e+02     3.1642     1.8177    63.4818   997.7960  0.000e+00
      0.061    22.2046    22.2099    190.570 179.935900      0.087     5.2713     60.558    8.70453    8.68667 1.2259e+02     3.2257     1.8143    63.5351   997.7962  0.000e+00
      0.060    22.2008    22.2062    189.773 179.169448      0.086     5.2514     60.325    8.70517    8.68732 1.2360e+02     3.2808     1.8171    63.4907   997.7967  0.000e+00
      0.060    22.1964    22.2017    184.856 174.510032      0.086     5.2309     60.083    8.70602    8.68817 1.1515e+02     3.1960     1.7918    63.8934   997.7960  0.000e+00
      0.062    22.1919    22.1972    180.815 170.679077      0.089     5.2157     59.903    8.70687    8.68903 1.1032e+02     3.1112     1.7767    64.1347   997.7956  0.000e+00
      0.065    22.1885    22.1938    181.445 171.261338      0.092     5.1893     59.596    8.70743    8.68958 1.0768e+02     3.0455     1.7766    64.1377   997.7966  0.000e+00
      0.066    22.1866    22.1919    185.609 175.184361      0.093     5.1787     59.473    8.70765    8.68981 1.0516e+02     3.0412     1.7890    63.9378   997.7985  0.000e+00
      0.068    22.1834    22.1887    199.396 188.184789      0.096     5.1686     59.356    8.70786    8.69001 1.0738e+02     2.9861     1.7600    64.4042   997.8042  0.000e+00
      0.068    22.1799    22.1853    205.262 193.706356      0.096     5.1534     59.178    8.70830    8.69046 1.1704e+02     2.9416     1.7392    64.7388   997.8071  0.000e+00
      0.067    22.1796    22.1849    203.573 192.111083      0.095     5.1407     59.032    8.70840    8.69056 1.0770e+02     2.9289     1.7554    64.4782   997.8065  0.000e+00
      0.065    22.1797    22.1850    199.574 188.338148      0.092     5.1244     58.844    8.70848    8.69064 1.0944e+02     2.9225     1.8669    62.7059   997.8051  0.000e+00
      0.065    22.1775    22.1828    195.814 184.780576      0.092     5.1150     58.732    8.70893    8.69110 1.1309e+02     2.8865     1.8523    62.9340   997.8042  0.000e+00
      0.065    22.1740    22.1793    195.633 184.596582      0.092     5.1902     59.592    8.70952    8.69168 1.0227e+02     2.8377     1.7736    64.1851   997.8050  0.000e+00
      0.062    22.1691    22.1745    199.456 188.184798      0.089     5.4454     62.517    8.71024    8.69241 1.0292e+02     2.8377     1.7636    64.3465   997.8074  0.000e+00
      0.062    22.1640    22.1693    198.243 187.019329      0.089     5.7943     66.516    8.71113    8.69331 9.9241e+01     2.7953     1.7695    64.2502   997.8082  0.000e+00
      0.065    22.1592    22.1645    191.729 180.855710      0.092     6.1528     70.624    8.71208    8.69426 9.7841e+01     2.7805     1.7535    64.5079   997.8070  0.000e+00
      0.072    22.1552    22.1605    186.512 175.920030      0.103     6.4724     74.285    8.71287    8.69505 9.8833e+01     2.7317     1.7498    64.5686   997.8060  0.000e+00
      0.074    22.1520    22.1573    191.563 180.671755      0.106     6.7284     77.220    8.71329    8.69547 1.0721e+02     2.7190     1.7584    64.4294   997.8086  0.000e+00
      0.080    22.1487    22.1540    206.374 194.626782      0.114     6.9073     79.271    8.71350    8.69568 1.0266e+02     2.8144     1.7641    64.3376   997.8147  0.000e+00
      0.072    22.1458    22.1511    219.664 207.148447      0.103     6.9840     80.150    8.71367    8.69585 1.0684e+02     2.8950     1.7506    64.5552   997.8200  0.000e+00
      0.071    22.1489    22.1542    215.939 203.648970      0.101     6.9504     79.769    8.71324    8.69542 1.2022e+02     2.9119     1.7439    64.6633   997.8180  0.000e+00
      0.068    22.1511    22.1564    202.622 191.098781      0.096     6.8577     78.705    8.71319    8.69537 1.3596e+02     2.9395     1.7544    64.4945   997.8127  0.000e+00
      0.068    22.1493    22.1546    196.353 185.179255      0.096     6.7289     77.223    8.71364    8.69582 1.4218e+02     2.9967     1.7747    64.1673   997.8109  0.000e+00
      0.065    22.1453    22.1506    202.289 190.761356      0.092     6.6040     75.785    8.71416    8.69635 1.4414e+02     2.9479     1.7810    64.0666   997.8139  0.000e+00
      0.066    22.1400    22.1454    205.435 193.706381      0.093     6.4972     74.552    8.71497    8.69716 1.4448e+02     2.8568     1.7644    64.3331   997.8162  0.000e+00
      0.065    22.1346    22.1399    198.724 187.356714      0.092     6.4044     73.478    8.71604    8.69823 1.4441e+02     2.7762     1.7730    64.1940   997.8151  0.000e+00
      0.069    22.1305    22.1359    196.009 184.780604      0.098     6.3251     72.562    8.71678    8.69898 1.3547e+02     2.8314     1.7694    64.2532   997.8151  0.000e+00
      0.069    22.1271    22.1324    204.418 192.693990      0.098     6.2599     71.811    8.71717    8.69936 1.3956e+02     2.9225     1.7638    64.3420   997.8188  0.000e+00
      0.067    22.1227    22.1281    210.459 198.370214      0.095     6.2040     71.166    8.71775    8.69995 1.4335e+02     3.0200     1.7744    64.1718   997.8220  0.000e+00
      0.070    22.1194    22.1247    204.549 192.786029      0.100     6.1501     70.542    8.71844    8.70064 1.3931e+02     3.0391     1.7831    64.0326   997.8206  0.000e+00
      0.068    22.1176    22.1229    204.719 192.939421      0.096     6.1010     69.976    8.71875    8.70095 1.3491e+02     3.1472     1.7640    64.3391   997.8211  0.000e+00
      0.070    22.1148    22.1201    215.737 203.311355      0.100     6.0579     69.479    8.71896    8.70116 1.6849e+02     3.0794     1.7725    64.2029   997.8257  0.000e+00
      0.066    22.1108    22.1161    224.096 211.170541      0.093     6.0144     68.977    8.71943    8.70163 1.6737e+02     2.9861     1.7522    64.5301   997.8296  0.000e+00
      0.066    22.1088    22.1141    214.690 202.298482      0.093     5.9760     68.532    8.71999    8.70220 1.5543e+02     3.0349     1.7479    64.5982   997.8267  0.000e+00
      0.068    22.1077    22.1130    205.121 193.276892      0.096     5.9354     68.064    8.72040    8.70261 1.8369e+02     3.0624     1.7515    64.5404   997.8235  0.000e+00
      0.067    22.1056    22.1109    206.204 194.289322      0.095     5.8982     67.634    8.72072    8.70293 1.7744e+02     3.0963     1.7432    64.6752   997.8244  0.000e+00
      0.069    22.1019    22.1072    214.624 202.206409      0.098     5.9086     67.751    8.72114    8.70336 1.7651e+02     3.1048     1.7374    64.7685   997.8282  0.000e+00
      0.068    22.0972    22.1025    223.900 210.924905      0.096     6.0570     69.448    8.72172    8.70393 1.5101e+02     3.0942     1.7375    64.7670   997.8326  0.000e+00
      0.067    22.0930    22.0983    228.451 215.193417      0.095     6.2828     72.032    8.72230    8.70452 1.5135e+02     3.0942     1.7645    64.3317   997.8352  0.000e+00
      0.066    22.0891    22.0944    226.481 213.320079      0.093     6.5128     74.663    8.72300    8.70523 1.5352e+02     3.1578     1.7584    64.4294   997.8354  0.000e+00
      0.067    22.0834    22.0887    216.957 204.324304      0.095     6.7076     76.885    8.72418    8.70641 1.4290e+02     3.2045     1.7582    64.4323   997.8333  0.000e+00
      0.067    22.0780    22.0833    213.853 201.377749      0.095     6.8536     78.550    8.72517    8.70740 1.5597e+02     3.1960     1.7556    64.4753   997.8334  0.000e+00
      0.062    22.0734    22.0787    219.220 206.411714      0.089     6.9316     79.438    8.72580    8.70804 1.6471e+02     3.1960     1.7566    64.4590   997.8363  0.000e+00
      0.064    22.0676    22.0729    221.008 208.069515      0.092     6.9433     79.564    8.72674    8.70898 1.4085e+02     3.1387     1.7465    64.6219   997.8383  0.000e+00
      0.068    22.0612    22.0665    219.342 206.473120      0.096     6.8792     78.819    8.72786    8.71010 1.5643e+02     3.1048     1.7338    64.8262   997.8392  0.000e+00
      0.066    22.0553    22.0606    223.120 210.003790      0.093     6.7587     77.431    8.72875    8.71100 1.7291e+02     3.0667     1.7393    64.7374   997.8419  0.000e+00
      0.066    22.0501    22.0554    229.378 215.869121      0.093     6.6191     75.825    8.72948    8.71173 1.5625e+02     3.1345     1.7527    64.5212   997.8453  0.000e+00
      0.068    22.0436    22.0489    233.327 219.555012      0.096     6.4885     74.320    8.73048    8.71274 1.5747e+02     3.1705     1.7467    64.6189   997.8482  0.000e+00
      0.067    22.0356    22.0409    228.893 215.347018      0.095     6.3761     73.020    8.73192    8.71418 1.7822e+02     3.2702     1.7397    64.7314   997.8484  0.000e+00
      0.063    22.0282    22.0335    216.233 203.403495      0.090     6.2726     71.823    8.73347    8.71574 1.7822e+02     3.2914     1.7544    64.4945   997.8456  0.000e+00
      0.068    22.0245    22.0298    211.779 199.198832      0.096     6.1953     70.932    8.73421    8.71647 1.7012e+02     3.3020     1.7557    64.4723   997.8448  0.000e+00
      0.067    22.0235    22.0288    221.476 208.315155      0.095     6.1144     70.006    8.73415    8.71641 1.5167e+02     3.2935     1.8085    63.6269   997.8485  0.000e+00
      0.068    22.0194    22.0247    234.949 220.968129      0.096     6.0574     69.350    8.73451    8.71678 1.3870e+02     3.2172     1.7601    64.4013   997.8543  0.000e+00
      0.070    22.0113    22.0166    236.786 222.657839      0.100     6.0036     68.724    8.73582    8.71810 1.4221e+02     3.1069     1.7777    64.1199   997.8568  0.000e+00
      0.067    22.0035    22.0087    233.885 219.892947      0.095     5.9566     68.175    8.73722    8.71950 1.3744e+02     3.0603     1.7658    64.3109   997.8576  0.000e+00
      0.066    21.9975    22.0028    232.575 218.633510      0.093     5.9098     67.632    8.73824    8.72053 1.1542e+02     3.0137     1.7849    64.0044   997.8584  0.000e+00
      0.066    21.9930    21.9983    232.042 218.111329      0.093     5.8653     67.117    8.73902    8.72131 1.1236e+02     2.9797     1.7876    63.9615   997.8593  0.000e+00
      0.067    21.9887    21.9940    224.286 210.802158      0.095     5.8298     66.703    8.73993    8.72222 1.1893e+02     2.9988     1.7666    64.2976   997.8575  0.000e+00
      0.067    21.9865    21.9918    219.070 205.889901      0.095     5.7875     66.215    8.74042    8.72272 1.1340e+02     2.9903     1.7681    64.2739   997.8561  0.000e+00
      0.068    21.9863    21.9916    224.428 210.924981      0.096     5.7555     65.849    8.74032    8.72262 1.2984e+02     3.0327     1.7790    64.0992   997.8580  0.000e+00
      0.069    21.9847    21.9900    237.901 223.579574      0.098     5.7242     65.492    8.74027    8.72257 1.2964e+02     3.0879     1.7522    64.5301   997.8633  0.000e+00
      0.066    21.9798    21.9851    243.551 228.864887      0.093     5.6971     65.177    8.74096    8.72326 1.4306e+02     3.0455     1.7703    64.2384   997.8664  0.000e+00
      0.067    21.9737    21.9790    237.859 223.487409      0.095     5.6708     64.867    8.74212    8.72442 1.3432e+02     3.0052     1.7751    64.1614   997.8657  0.000e+00
      0.066    21.9694    21.9746    229.151 215.285640      0.093     5.6424     64.536    8.74307    8.72537 1.3423e+02     2.9649     1.7868    63.9734   997.8636  0.000e+00
      0.066    21.9672    21.9724    227.364 213.596548      0.093     5.6166     64.238    8.74348    8.72579 1.3313e+02     2.9098     1.7742    64.1762   997.8634  0.000e+00
      0.068    21.9662    21.9714    226.944 213.197328      0.096     5.5890     63.920    8.74366    8.72597 1.3146e+02     2.9098     1.7759    64.1481   997.8635  0.000e+00
      0.069    21.9644    21.9697    227.966 214.149328      0.098     5.5663     63.659    8.74393    8.72624 1.3715e+02     2.9713     1.7863    63.9822   997.8643  0.000e+00
      0.069    21.9619    21.9672    234.713 220.476646      0.098     5.5410     63.368    8.74418    8.72649 1.3867e+02     3.0391     1.7812    64.0637   997.8673  0.000e+00
      0.066    21.9582    21.9635    244.906 230.032772      0.093     5.5207     63.133    8.74456    8.72688 1.2047e+02     3.0836     1.7591    64.4175   997.8718  0.000e+00
      0.070    21.9536    21.9589    242.967 228.188802      0.100     5.4935     62.816    8.74539    8.72771 1.3267e+02     3.0031     1.7516    64.5390   997.8722  0.000e+00
      0.069    21.9496    21.9549    233.172 218.971436      0.098     5.4724     62.568    8.74629    8.72861 1.3158e+02     3.0963     1.7529    64.5182   997.8695  0.000e+00
      0.071    21.9474    21.9527    228.637 214.702134      0.101     5.4534     62.347    8.74677    8.72909 1.3578e+02     3.1472     1.7654    64.3169   997.8684  0.000e+00
      0.069    21.9463    21.9516    235.413 221.060343      0.098     5.4342     62.128    8.74680    8.72912 1.3615e+02     3.1430     1.7516    64.5390   997.8711  0.000e+00
      0.070    21.9442    21.9494    248.547 233.383095      0.100     5.4103     61.855    8.74685    8.72917 1.5394e+02     3.0624     1.7614    64.3805   997.8763  0.000e+00
      0.068    21.9407    21.9460    245.456 230.463070      0.096     5.3929     61.650    8.74751    8.72983 1.4936e+02     2.9204     1.7694    64.2517   997.8760  0.000e+00
      0.069    21.9379    21.9432    231.889 217.712060      0.098     5.3749     61.439    8.74830    8.73063 1.6562e+02     2.8314     1.7567    64.4575   997.8717  0.000e+00
      0.068    21.9370    21.9423    227.150 213.258766      0.096     5.3571     61.234    8.74857    8.73090 1.6668e+02     2.7423     1.7523    64.5271   997.8702  0.000e+00
      0.071    21.9374    21.9427    230.190 216.114905      0.101     5.3385     61.022    8.74843    8.73075 1.5536e+02     2.6575     1.7449    64.6470   997.8712  0.000e+00
      0.071    21.9366    21.9418    235.102 220.722425      0.101     5.3243     60.860    8.74845    8.73078 1.6013e+02     2.6194     1.7449    64.6470   997.8732  0.000e+00
      0.070    21.9340    21.9392    240.482 225.761172      0.100     5.3107     60.703    8.74876    8.73109 1.3959e+02     2.7148     1.7764    64.1407   997.8757  0.000e+00
      0.072    21.9307    21.9359    248.979 233.721240      0.103     5.2944     60.513    8.74911    8.73144 1.3343e+02     2.8229     1.7717    64.2162   997.8795  0.000e+00
      0.070    21.9270    21.9323    255.909 240.208379      0.100     5.2832     60.383    8.74956    8.73189 1.3959e+02     2.8716     1.7806    64.0726   997.8828  0.000e+00
      0.069    21.9245    21.9298    256.382 240.638880      0.098     5.2673     60.198    8.74997    8.73231 1.3544e+02     2.9416     1.7598    64.4072   997.8836  0.000e+00
      0.070    21.9217    21.9269    242.608 227.697128      0.099     5.2477     59.969    8.75078    8.73312 1.1693e+02     2.9946     1.7689    64.2606   997.8793  0.000e+00
      0.068    21.9192    21.9245    232.080 217.804221      0.096     5.2288     59.748    8.75145    8.73379 1.1252e+02     3.0115     1.7511    64.5464   997.8760  0.000e+00
      0.069    21.9183    21.9236    234.834 220.384518      0.098     5.2143     59.581    8.75154    8.73388 1.1444e+02     3.0306     1.7410    64.7107   997.8772  0.000e+00
      0.072    21.9178    21.9230    246.296 231.139267      0.103     5.1968     59.382    8.75135    8.73369 1.0430e+02     3.0115     1.7427    64.6826   997.8815  0.000e+00
      0.071    21.9150    21.9203    253.387 237.779314      0.101     5.1912     59.316    8.75165    8.73399 1.0992e+02     2.9373     1.7609    64.3894   997.8847  0.000e+00
      0.069    21.9119    21.9172    252.683 237.102917      0.098     5.1776     59.157    8.75219    8.73453 1.1954e+02     2.9373     1.7442    64.6589   997.8851  0.000e+00
      0.070    21.9097    21.9150    250.892 235.412017      0.099     5.1628     58.986    8.75260    8.73495 1.1688e+02     2.9098     1.7478    64.5997   997.8850  0.000e+00
      0.071    21.9078    21.9130    258.243 242.299474      0.101     5.1510     58.850    8.75275    8.73510 1.0483e+02     2.8971     1.7699    64.2443   997.8881  0.000e+00
      0.070    21.9053    21.9106    264.289 247.958765      0.099     5.1372     58.691    8.75302    8.73537 1.0468e+02     2.8865     1.7590    64.4205   997.8908  0.000e+00
      0.070    21.9025    21.9077    255.847 240.023901      0.099     5.1232     58.526    8.75370    8.73606 1.0650e+02     2.8610     1.7567    64.4575   997.8884  0.000e+00
      0.071    21.8994    21.9046    244.329 229.203008      0.101     5.1064     58.328    8.75451    8.73686 1.0323e+02     2.9331     1.7858    63.9896   997.8849  0.000e+00
      0.071    21.8978    21.9031    243.452 228.373234      0.101     5.0949     58.196    8.75478    8.73714 1.0071e+02     2.9331     1.7669    64.2932   997.8850  0.000e+00
      0.072    21.8973    21.9026    246.305 231.047075      0.103     5.0797     58.022    8.75480    8.73716 1.0210e+02     2.9903     1.7576    64.4427   997.8861  0.000e+00
      0.074    21.8956    21.9008    245.594 230.370899      0.106     5.0720     57.932    8.75512    8.73747 1.0325e+02     3.0476     1.7565    64.4605   997.8863  0.000e+00
      0.081    21.8930    21.8982    245.444 230.217228      0.115     5.0630     57.826    8.75556    8.73792 9.7015e+01     3.1112     1.7473    64.6085   997.8868  0.000e+00
      0.092    21.8909    21.8961    250.829 235.258321      0.131     5.0554     57.738    8.75579    8.73815 9.6483e+01     3.1387     1.7474    64.6071   997.8893  0.000e+00
      0.095    21.8887    21.8939    269.664 252.911942      0.135     5.0457     57.628    8.75570    8.73806 1.0147e+02     3.1197     1.7589    64.4220   997.8966  0.000e+00
      0.095    21.8855    21.8907    283.729 266.085193      0.135     5.0372     57.529    8.75590    8.73826 1.0526e+02     3.0688     1.7667    64.2961   997.9025  0.000e+00
      0.088    21.8800    21.8853    282.679 265.069202      0.124     5.0249     57.382    8.75685    8.73921 1.0459e+02     3.0730     1.7607    64.3924   997.9033  0.000e+00
      0.084    21.8729    21.8781    267.950 251.219746      0.120     5.0120     57.225    8.75841    8.74078 1.1389e+02     3.0857     1.7694    64.2532   997.8995  0.000e+00
      0.080    21.8681    21.8734    258.462 242.299505      0.114     5.0029     57.115    8.75944    8.74181 1.2003e+02     3.1112     1.7567    64.4560   997.8971  0.000e+00
      0.075    21.8665    21.8718    258.405 242.238001      0.107     4.9889     56.953    8.75971    8.74208 1.1635e+02     3.0645     1.7655    64.3154   997.8974  0.000e+00
      0.073    21.8651    21.8704    262.251 245.836380      0.104     4.9842     56.898    8.75986    8.74223 1.0375e+02     3.0603     1.7725    64.2029   997.8992  0.000e+00
      0.071    21.8620    21.8673    266.371 249.681503      0.101     4.9750     56.790    8.76028    8.74266 1.0217e+02     3.0794     1.7811    64.0652   997.9013  0.000e+00
      0.070    21.8577    21.8630    263.737 247.189786      0.099     4.9673     56.697    8.76107    8.74345 1.0045e+02     3.0942     1.7849    64.0044   997.9013  0.000e+00
      0.071    21.8536    21.8589    256.212 240.116188      0.101     4.9590     56.597    8.76195    8.74433 1.0212e+02     3.0264     1.7611    64.3864   997.8996  0.000e+00
      0.067    21.8519    21.8572    252.022 236.180636      0.095     4.9506     56.499    8.76233    8.74472 1.0344e+02     2.9479     1.7782    64.1111   997.8984  0.000e+00
      0.071    21.8529    21.8581    252.804 236.918494      0.101     4.9390     56.368    8.76216    8.74455 1.0234e+02     2.8844     1.7748    64.1658   997.8985  0.000e+00
      0.074    21.8545    21.8598    262.409 245.928663      0.106     4.9305     56.274    8.76164    8.74403 9.8856e+01     2.8123     1.7481    64.5952   997.9016  0.000e+00
      0.077    21.8534    21.8587    285.894 267.932615      0.109     4.9241     56.203    8.76126    8.74364 1.0442e+02     2.8398     1.7910    63.9067   997.9104  0.000e+00
      0.075    21.8480    21.8532    295.656 277.048872      0.107     4.9117     56.058    8.76194    8.74433 1.0879e+02     2.8589     1.7969    63.8120   997.9152  0.000e+00
      0.077    21.8387    21.8440    286.510 268.425295      0.109     4.9058     55.978    8.76373    8.74612 1.1839e+02     2.8674     1.7770    64.1303   997.9139  0.000e+00
      0.074    21.8308    21.8361    259.653 243.222138      0.106     4.9020     55.923    8.76572    8.74812 1.2287e+02     2.9267     1.7723    64.2058   997.9059  0.000e+00
      0.073    21.8410    21.8462    122.201 114.493394      0.104     4.9014     55.906    8.76726    8.74966 1.4179e+02     2.9140     1.7741    64.1777   997.8547  0.000e+00
      0.072    22.0378    22.0430    106.884 100.562847      0.103     4.9305     56.449    8.73443    8.71669 1.6168e+02     2.8886     1.7614    64.3805   997.8049  0.000e+00
      0.073    22.3124    22.3177    104.005  98.425161      0.104     5.2270     60.160    8.68855    8.67062 1.4830e+02     2.8589     1.7740    64.1792   997.7411  0.000e+00
      0.071    22.4836    22.4890    102.472  97.325860      0.101     5.8833     67.935    8.66015    8.64211 1.2122e+02     2.8398     1.7878    63.9571   997.7011  0.000e+00
      0.071    22.5697    22.5752    101.613  96.684633      0.101     6.7154     77.671    8.64593    8.62783 1.1683e+02     2.8441     1.7804    64.0755   997.6808  0.000e+00
      0.070    22.6109    22.6163    100.916  96.104505      0.099     7.5512     87.407    8.63916    8.62103 1.0288e+02     2.8526     1.7837    64.0237   997.6710  0.000e+00
      0.072    22.6310    22.6365    100.520  95.768651      0.103     8.2861     95.950    8.63585    8.61771 9.7841e+01     2.9522     1.7992    63.7749   997.6661  0.000e+00
      0.072    22.6441    22.6495    100.333  95.615990      0.103     8.8639    102.666    8.63371    8.61556 1.0161e+02     2.9162     1.7843    64.0133   997.6630  0.000e+00
      0.074    22.6537    22.6592    100.120  95.432801      0.106     9.2630    107.308    8.63212    8.61397 1.0416e+02     2.8928     1.7566    64.4590   997.6607  0.000e+00
      0.073    22.6598    22.6653    100.299  95.615985      0.104     9.4426    109.402    8.63111    8.61295 1.1293e+02     2.8632     1.7612    64.3850   997.6593  0.000e+00
      0.070    22.6593    22.6648    100.108  95.432799      0.099     9.4265    109.214    8.63120    8.61304 1.0790e+02     2.8229     1.7520    64.5330   997.6594  0.000e+00
      0.070    22.6577    22.6631    100.048  95.371738      0.099     9.2729    107.431    8.63147    8.61331 1.0606e+02     2.8526     1.7542    64.4975   997.6597  0.000e+00
      0.067    22.6553    22.6607    100.053  95.371739      0.095     9.0766    105.152    8.63187    8.61371 1.0370e+02     2.8250     1.7871    63.9689   997.6603  0.000e+00
      0.068    22.6463    22.6517    100.168  95.463334      0.096     8.9024    103.116    8.63334    8.61519 1.0428e+02     2.8886     1.7701    64.2413   997.6624  0.000e+00
      0.068    22.6315    22.6369    100.263  95.524401      0.096     8.7574    101.409    8.63578    8.61764 1.1007e+02     2.9522     1.7733    64.1895   997.6659  0.000e+00
      0.067    22.6215    22.6269    100.284  95.524404      0.095     8.6491    100.135    8.63743    8.61929 1.0837e+02     3.0476     1.8134    63.5499   997.6683  0.000e+00
      0.067    22.6244    22.6298    100.278  95.524403      0.095     8.5560     99.063    8.63695    8.61881 1.0558e+02     3.0243     1.8187    63.4655   997.6676  0.000e+00
      0.067    22.6289    22.6343    100.172  95.432809      0.095     8.4846     98.245    8.63621    8.61807 1.1431e+02     3.0667     1.8320    63.2552   997.6665  0.000e+00
      0.067    22.6281    22.6335    100.110  95.371747      0.095     8.4287     97.595    8.63634    8.61820 1.0266e+02     3.0327     1.8279    63.3204   997.6667  0.000e+00
      0.066    22.6232    22.6286    100.024  95.280157      0.093     8.3918     97.159    8.63715    8.61901 1.0859e+02     3.0243     1.8086    63.6254   997.6678  0.000e+00
      0.064    22.6172    22.6226     99.780  95.035914      0.092     8.3657     96.846    8.63815    8.62002 1.1042e+02     2.9691     1.7834    64.0281   997.6691  0.000e+00
      0.066    22.6145    22.6199     99.946  95.188567      0.093     8.3506     96.666    8.63859    8.62046 1.1418e+02     2.9585     1.7636    64.3465   997.6698  0.000e+00
      0.063    22.6183    22.6237     99.874  95.127505      0.090     8.3395     96.544    8.63796    8.61983 1.1685e+02     2.8907     1.7602    64.3998   997.6688  0.000e+00
      0.063    22.6266    22.6320     99.664  94.944321      0.090     8.3245     96.386    8.63661    8.61847 1.1080e+02     2.8865     1.7560    64.4679   997.6668  0.000e+00
      0.062    22.6348    22.6402     99.840  95.127500      0.088     8.3146     96.287    8.63525    8.61711 1.1723e+02     2.8716     1.7659    64.3095   997.6650  0.000e+00
      0.062    22.6395    22.6449     99.894  95.188560      0.088     8.3118     96.263    8.63447    8.61632 1.1926e+02     2.8674     1.7724    64.2043   997.6639  0.000e+00
      0.062    22.6468    22.6523     99.718  95.035905      0.088     8.3134     96.295    8.63327    8.61512 1.2301e+02     2.8632     1.7708    64.2295   997.6621  0.000e+00
      0.058    22.6454    22.6509     99.721  95.035906      0.082     8.3128     96.285    8.63350    8.61534 1.2621e+02     2.8059     1.7608    64.3909   997.6624  0.000e+00
      0.058    22.6421    22.6475     99.824  95.127498      0.082     8.3192     96.354    8.63405    8.61590 1.3386e+02     2.8292     1.7838    64.0222   997.6633  0.000e+00
      0.056    22.6375    22.6429     99.994  95.280152      0.079     8.3224     96.382    8.63479    8.61665 1.3113e+02     2.8102     1.8018    63.7335   997.6644  0.000e+00
      0.053    22.6303    22.6357     99.849  95.127501      0.076     8.3236     96.382    8.63599    8.61785 1.4881e+02     2.7635     1.7915    63.8978   997.6660  0.000e+00
      0.045    22.6239    22.6293     99.862  95.127503      0.063     8.3258     96.396    8.63704    8.61890 1.6131e+02     2.7232     1.8047    63.6876   997.6675  0.000e+00
      0.042    22.6220    22.6274    100.059  95.310687      0.060     8.3170     96.291    8.63735    8.61921 2.4630e+02     2.7190     1.8075    63.6432   997.6680  0.000e+00
      0.056    22.6188    22.6242    100.194  95.432812      0.079     8.3143     96.255    8.63787    8.61974 1.2907e+02     2.7614     1.7857    63.9911   997.6688  0.000e+00
      0.072    22.6117    22.6171     99.952  95.188568      0.103     8.3047     96.130    8.63905    8.62093 1.4912e+02     2.8526     1.7675    64.2828   997.6705  0.000e+00
      0.090    22.6205    22.6260     99.517  94.791673      0.128     8.2954     96.038    8.63760    8.61947 1.9107e+02     2.9479     1.7773    64.1259   997.6683  0.000e+00
      0.097    22.6471    22.6525     99.301  94.639016      0.138     8.2838     95.952    8.63323    8.61508 1.6161e+02     2.9437     1.7533    64.5108   997.6621  0.000e+00
      0.095    22.6678    22.6732     99.514  94.883248      0.135     8.2817     95.966    8.62982    8.61166 1.3924e+02     2.9098     1.7762    64.1436   997.6573  0.000e+00
      0.082    22.6779    22.6833     99.909  95.280140      0.117     8.2758     95.917    8.62815    8.60998 9.8111e+01     2.8547     1.7737    64.1836   997.6550  0.000e+00
      0.061    22.6653    22.6707     99.776  95.127491      0.087     8.2800     95.941    8.63023    8.61206 1.0716e+02     2.9162     1.7569    64.4531   997.6578  0.000e+00
      0.043    22.6516    22.6570     99.356  94.700073      0.062     8.2829     95.950    8.63250    8.61434 9.1216e+01     2.8886     1.7718    64.2132   997.6608  0.000e+00
      0.038    22.6528    22.6582    100.058  95.371739      0.054     8.2856     95.984    8.63228    8.61413 1.0660e+02     2.6618     1.7754    64.1570   997.6608  0.000e+00
      0.039    22.6515    22.6569     99.869  95.188556      0.056     8.2968     96.111    8.63250    8.61434 9.6461e+01     2.6406     1.7732    64.1910   997.6610  0.000e+00
      0.041    22.6566    22.6620     98.577  93.967370      0.059     8.3041     96.205    8.63169    8.61353 9.8946e+01     2.5028     1.7895    63.9304   997.6594  0.000e+00
      0.041    22.6705    22.6759     98.388  93.814723      0.059     8.3134     96.338    8.62941    8.61124 9.1740e+01     2.4392     1.7813    64.0622   997.6561  0.000e+00
      0.041    22.6838    22.6893     98.520  93.967362      0.059     8.3187     96.424    8.62720    8.60903 1.2133e+02     2.5007     1.8036    63.7054   997.6530  0.000e+00
      0.042    22.6909    22.6964     98.506  93.967359      0.060     8.3246     96.505    8.62604    8.60786 2.1823e+02     2.4540     1.7992    63.7749   997.6513  0.000e+00
      0.042    22.6931    22.6985     97.989  93.478906      0.060     8.3296     96.567    8.62570    8.60752 1.1915e+02     2.4540     1.8074    63.6447   997.6507  0.000e+00
      0.042    22.6968    22.7022     98.238  93.723130      0.060     8.3251     96.522    8.62508    8.60690 8.7130e+01     2.4243     1.8030    63.7142   997.6499  0.000e+00
      0.039    22.6989    22.7043     98.489  93.967357      0.056     8.3234     96.507    8.62474    8.60655 1.1332e+02     2.3883     1.7965    63.8194   997.6495  0.000e+00
      0.043    22.6967    22.7022     98.750  94.211589      0.062     8.3232     96.500    8.62508    8.60690 1.2848e+02     2.3353     1.8194    63.4537   997.6501  0.000e+00
      0.043    22.6920    22.6974     98.920  94.364236      0.062     8.3219     96.476    8.62586    8.60768 1.4179e+02     2.2696     1.7937    63.8638   997.6512  0.000e+00
      0.041    22.6881    22.6935     98.256  93.723132      0.059     8.3249     96.504    8.62652    8.60834 1.5479e+02     2.1827     1.8111    63.5869   997.6519  0.000e+00
      0.040    22.6890    22.6945     98.062  93.539963      0.057     8.3244     96.499    8.62636    8.60818 1.1249e+02     2.0809     1.7961    63.8253   997.6516  0.000e+00
      0.038    22.6939    22.6994     98.756  94.211589      0.054     8.3207     96.466    8.62554    8.60736 2.2994e+02     2.1021     1.7806    64.0726   997.6507  0.000e+00
      0.038    22.6939    22.6994     98.404  93.875773      0.054     8.3041     96.274    8.62555    8.60736 2.9349e+02     2.1530     1.7890    63.9378   997.6506  0.000e+00
      0.040    22.6941    22.6996     98.595  94.058945      0.057     8.2963     96.183    8.62551    8.60733 2.0636e+02     2.1721     1.7972    63.8075   997.6506  0.000e+00
      0.039    22.6927    22.6982     98.406  93.875773      0.056     8.2972     96.191    8.62575    8.60756 1.7818e+02     2.1805     1.8083    63.6313   997.6509  0.000e+00
      0.039    22.6923    22.6977     98.343  93.814716      0.056     8.2968     96.186    8.62582    8.60764 1.3603e+02     2.1254     1.7992    63.7749   997.6509  0.000e+00
      0.039    22.6930    22.6984     98.406  93.875773      0.056     8.3048     96.280    8.62570    8.60752 1.1978e+02     2.1869     1.7842    64.0148   997.6508  0.000e+00
      0.041    22.6942    22.6996     98.339  93.814716      0.059     8.3110     96.353    8.62551    8.60732 1.2100e+02     2.2060     1.7722    64.2073   997.6505  0.000e+00
      0.039    22.6960    22.7015     97.983  93.478905      0.056     8.3019     96.251    8.62522    8.60703 9.7394e+01     2.1827     1.7804    64.0755   997.6500  0.000e+00
      0.042    22.6985    22.7040     97.882  93.387321      0.060     8.2970     96.199    8.62481    8.60662 1.0009e+02     2.3629     1.8020    63.7305   997.6493  0.000e+00
      0.040    22.7020    22.7074     97.875  93.387320      0.057     8.2938     96.168    8.62424    8.60605 1.0143e+02     2.3629     1.7883    63.9497   997.6485  0.000e+00
      0.042    22.7044    22.7098     97.966  93.478902      0.060     8.2898     96.127    8.62384    8.60565 1.2172e+02     2.2929     1.7907    63.9112   997.6480  0.000e+00
      0.040    22.7056    22.7110     98.315  93.814712      0.057     8.2881     96.110    8.62363    8.60544 1.2326e+02     2.3099     1.7833    64.0296   997.6478  0.000e+00
      0.041    22.7040    22.7094     98.127  93.631543      0.059     8.2832     96.049    8.62391    8.60572 1.3488e+02     2.2887     1.7912    63.9038   997.6482  0.000e+00
      0.043    22.7024    22.7079     98.322  93.814713      0.062     8.2754     95.956    8.62416    8.60597 1.0932e+02     2.3289     1.7955    63.8342   997.6486  0.000e+00
      0.046    22.7009    22.7064     98.389  93.875771      0.065     8.2705     95.897    8.62440    8.60621 1.5278e+02     2.4243     1.7802    64.0785   997.6490  0.000e+00
      0.049    22.6984    22.7039     98.362  93.845243      0.070     8.2759     95.955    8.62481    8.60662 1.6864e+02     2.4858     1.7973    63.8060   997.6496  0.000e+00
      0.056    22.6980    22.7034     98.395  93.875772      0.079     8.2785     95.984    8.62488    8.60669 1.9631e+02     2.5197     1.7989    63.7809   997.6497  0.000e+00
      0.057    22.6983    22.7037     98.331  93.814715      0.081     8.2755     95.950    8.62484    8.60665 1.7153e+02     2.4540     1.8340    63.2227   997.6496  0.000e+00
      0.059    22.6989    22.7044     98.233  93.723129      0.084     8.2787     95.988    8.62473    8.60654 1.4517e+02     2.4837     1.8284    63.3115   997.6494  0.000e+00
      0.060    22.6996    22.7050     98.040  93.539960      0.085     8.2863     96.077    8.62463    8.60645 1.6772e+02     2.4583     1.8024    63.7246   997.6492  0.000e+00
      0.061    22.7005    22.7060     98.134  93.631544      0.087     8.2976     96.210    8.62447    8.60629 1.3301e+02     2.4137     1.7933    63.8697   997.6490  0.000e+00
      0.063    22.7016    22.7071     98.132  93.631544      0.090     8.3087     96.340    8.62429    8.60610 1.1945e+02     2.3841     1.8204    63.4388   997.6488  0.000e+00
      0.063    22.7026    22.7080     98.034  93.539959      0.090     8.3098     96.355    8.62414    8.60595 1.0760e+02     2.3713     1.7981    63.7927   997.6485  0.000e+00
      0.067    22.7027    22.7082     98.033  93.539959      0.095     8.3147     96.413    8.62411    8.60592 1.6695e+02     2.3183     1.7934    63.8682   997.6485  0.000e+00
      0.063    22.7025    22.7079     98.130  93.631543      0.090     8.3190     96.462    8.62415    8.60596 1.9667e+02     2.3289     1.7606    64.3939   997.6486  0.000e+00
      0.059    22.7022    22.7077     98.226  93.723128      0.084     8.3153     96.418    8.62419    8.60600 1.9367e+02     2.3713     1.7824    64.0444   997.6487  0.000e+00
      0.061    22.7008    22.7063     98.037  93.539960      0.087     8.3051     96.298    8.62442    8.60623 1.9953e+02     2.3968     1.8245    63.3737   997.6489  0.000e+00
      0.060    22.7008    22.7062     98.133  93.631544      0.085     8.3006     96.246    8.62443    8.60624 1.9821e+02     2.3332     1.8077    63.6402   997.6490  0.000e+00
      0.051    22.7001    22.7055     98.327  93.814714      0.073     8.3031     96.273    8.62454    8.60635 9.4579e+01     2.3819     1.7636    64.3465   997.6492  0.000e+00
      0.042    22.6960    22.7015     98.239  93.723130      0.060     8.3058     96.296    8.62521    8.60703 1.3587e+02     2.3544     1.7935    63.8667   997.6501  0.000e+00
      0.042    22.6920    22.6975     98.343  93.814716      0.060     8.3082     96.317    8.62586    8.60768 2.8350e+02     2.4604     1.8250    63.3663   997.6510  0.000e+00
      0.045    22.6910    22.6964     98.250  93.723132      0.063     8.3062     96.292    8.62603    8.60785 9.1195e+01     2.4307     1.8013    63.7424   997.6512  0.000e+00
      0.043    22.6917    22.6971     98.152  93.631547      0.062     8.3161     96.408    8.62592    8.60774 1.4149e+02     2.2229     1.7710    64.2265   997.6510  0.000e+00
      0.046    22.6928    22.6983     98.214  93.692603      0.065     8.3173     96.425    8.62574    8.60755 9.9378e+01     2.2314     1.7748    64.1658   997.6508  0.000e+00
      0.046    22.6915    22.6970     98.505  93.967359      0.065     8.3220     96.477    8.62594    8.60776 2.0937e+02     2.2357     1.7624    64.3642   997.6512  0.000e+00
      0.047    22.6896    22.6951     98.412  93.875774      0.066     8.3198     96.448    8.62626    8.60808 1.6183e+02     2.2208     1.7742    64.1762   997.6516  0.000e+00
      0.048    22.6870    22.6925     98.162  93.631548      0.068     8.3128     96.361    8.62669    8.60851 3.3329e+02     2.3586     1.7624    64.3657   997.6522  0.000e+00
      0.050    22.6877    22.6932     98.256  93.723133      0.071     8.3033     96.253    8.62657    8.60839 2.1723e+02     2.3756     1.7983    63.7898   997.6520  0.000e+00
      0.058    22.6907    22.6961     98.154  93.631547      0.082     8.3127     96.367    8.62609    8.60791 1.5188e+02     2.4201     1.7844    64.0118   997.6513  0.000e+00
      0.058    22.6945    22.7000     98.050  93.539962      0.082     8.3201     96.460    8.62545    8.60727 1.4107e+02     2.4646     1.7738    64.1821   997.6504  0.000e+00
      0.054    22.6979    22.7034     98.139  93.631545      0.077     8.3199     96.464    8.62490    8.60671 1.0504e+02     2.4519     1.7942    63.8549   997.6496  0.000e+00
      0.047    22.6984    22.7039     98.234  93.723129      0.066     8.3115     96.367    8.62481    8.60663 1.0731e+02     2.5028     1.7922    63.8875   997.6495  0.000e+00
      0.037    22.6962    22.7016     98.399  93.875772      0.052     8.3039     96.275    8.62518    8.60699 1.5951e+02     2.4901     1.8002    63.7601   997.6500  0.000e+00
      0.019    22.6919    22.6973     98.664  94.120003      0.027     8.2995     96.217    8.62588    8.60770 3.0894e+02     2.4816     1.7732    64.1910   997.6511  0.000e+00
      0.008    22.6861    22.6915     98.612  94.058947      0.012     8.3012     96.225    8.62683    8.60866 9.6594e+01     2.5642     1.7966    63.8164   997.6524  0.000e+00
     -0.003    22.6837    22.6892     98.617  94.058947     -0.004     8.3018     96.228    8.62722    8.60904 3.9532e+02     2.4371     1.7978    63.7972   997.6528  0.000e+00
     -0.049    22.6812    22.6867     98.622  94.058948     -0.069     8.3002     96.205    8.62763    8.60945 3.7008e+02     1.9855     1.7908    63.9097   997.6532  0.000e+00
     -0.095    22.6790    22.6844     98.690  94.120006     -0.135     8.3041     96.245    8.62800    8.60982 4.3616e+02     1.7862     1.7703    64.2384   997.6536  0.000e+00
     -0.119    22.6806    22.6861     98.431  93.875775     -0.170     8.3084     96.299    8.62773    8.60956 4.3666e+02     1.6082     1.7812    64.0637   997.6530  0.000e+00
     -0.120    22.6832    22.6887     98.682  94.120004     -0.171     8.3094     96.315    8.62730    8.60912 4.8143e+02     1.8604     1.7595    64.4116   997.6525  0.000e+00
     -0.104    22.6831    22.6886     98.682  94.120005     -0.148     8.3026     96.236    8.62731    8.60914 4.9622e+02     1.7841     1.7719    64.2117   997.6526  0.000e+00
     -0.090    22.6827    22.6882     98.619  94.058947     -0.127     8.2970     96.171    8.62739    8.60921 5.0239e+02     1.8244     1.7734    64.1880   997.6527  0.000e+00
     -0.082    22.6839    22.6894     98.328  93.784189     -0.116     8.2932     96.129    8.62719    8.60902 5.1239e+02     2.4773     1.7718    64.2132   997.6524  0.000e+00
     -0.090    22.6876    22.6931     98.353  93.814716     -0.127     8.2954     96.161    8.62658    8.60840 5.0033e+02     2.5536     1.7794    64.0918   997.6515  0.000e+00
     -0.102    22.6907    22.6961     98.410  93.875772     -0.145     8.2987     96.205    8.62609    8.60790 4.9610e+02     2.2505     1.7756    64.1525   997.6507  0.000e+00
     -0.097    22.6920    22.6975     98.407  93.875772     -0.138     8.3074     96.308    8.62586    8.60768 5.0783e+02     2.1381     1.7689    64.2606   997.6504  0.000e+00
     -0.077    22.6934    22.6989     98.149  93.631545     -0.110     8.3063     96.298    8.62564    8.60745 4.1481e+02     2.0322     1.7829    64.0355   997.6501  0.000e+00
     -0.063    22.6965    22.7020     98.046  93.539960     -0.090     8.2994     96.224    8.62513    8.60694 3.7033e+02     2.1699     1.7802    64.0800   997.6494  0.000e+00
     -0.057    22.6996    22.7050     98.136  93.631543     -0.080     8.2911     96.133    8.62463    8.60644 3.8092e+02     2.1466     1.7833    64.0296   997.6487  0.000e+00
     -0.052    22.7006    22.7060     97.974  93.478903     -0.074     8.2806     96.013    8.62446    8.60628 4.0135e+02     2.1699     1.7741    64.1777   997.6485  0.000e+00
     -0.057    22.7019    22.7073     97.971  93.478902     -0.080     8.2795     96.003    8.62425    8.60606 4.0116e+02     2.2908     1.7983    63.7898   997.6481  0.000e+00
     -0.058    22.7037    22.7091     98.031  93.539958     -0.082     8.2814     96.028    8.62395    8.60576 2.3115e+02     2.2060     1.7838    64.0222   997.6477  0.000e+00
     -0.057    22.7048    22.7103     97.965  93.478901     -0.080     8.2769     95.977    8.62377    8.60558 3.7736e+02     2.1848     1.7759    64.1481   997.6475  0.000e+00
     -0.046    22.7051    22.7105     97.965  93.478901     -0.065     8.2690     95.886    8.62373    8.60553 4.3020e+02     2.0385     1.7758    64.1495   997.6474  0.000e+00
     -0.036    22.7047    22.7102     98.029  93.539958     -0.051     8.2724     95.926    8.62378    8.60559 3.4234e+02     1.7990     1.7835    64.0267   997.6476  0.000e+00
     -0.030    22.7046    22.7100     97.966  93.478902     -0.043     8.2762     95.969    8.62381    8.60562 5.4898e+02     1.6633     1.7921    63.8890   997.6476  0.000e+00
     -0.024    22.7053    22.7108     97.964  93.478902     -0.034     8.2797     96.011    8.62368    8.60549 3.9343e+02     1.7778     1.7859    63.9882   997.6475  0.000e+00
     -0.031    22.7051    22.7105     98.125  93.631542     -0.045     8.2835     96.055    8.62372    8.60553 3.8655e+02     1.8753     1.7832    64.0311   997.6476  0.000e+00
     -0.042    22.7027    22.7082     98.225  93.723127     -0.060     8.2887     96.111    8.62410    8.60591 3.8040e+02     1.9643     1.7750    64.1629   997.6481  0.000e+00
     -0.048    22.6996    22.7050     98.392  93.875770     -0.068     8.2900     96.120    8.62462    8.60644 4.0089e+02     2.0300     1.7845    64.0104   997.6489  0.000e+00
     -0.045    22.6970    22.7024     98.301  93.784186     -0.063     8.2915     96.132    8.62505    8.60687 3.7477e+02     2.0915     1.7547    64.4886   997.6495  0.000e+00
     -0.039    22.6959    22.7014     98.239  93.723129     -0.055     8.2968     96.192    8.62522    8.60704 4.1700e+02     2.0852     1.7730    64.1940   997.6497  0.000e+00
     -0.035    22.6961    22.7015     98.047  93.539960     -0.049     8.3033     96.268    8.62520    8.60702 4.4863e+02     2.1360     1.8152    63.5203   997.6496  0.000e+00
     -0.032    22.6975    22.7029     98.044  93.539960     -0.046     8.3023     96.259    8.62497    8.60679 3.8734e+02     2.2653     1.7709    64.2280   997.6493  0.000e+00
     -0.027    22.6994    22.7048     98.040  93.539959     -0.038     8.2983     96.216    8.62466    8.60647 3.7952e+02     2.3035     1.7836    64.0252   997.6489  0.000e+00
     -0.028    22.7008    22.7063     98.133  93.631543     -0.040     8.2915     96.140    8.62442    8.60623 3.7987e+02     2.2865     1.7692    64.2562   997.6486  0.000e+00
     -0.029    22.7011    22.7066     98.133  93.631543     -0.041     8.2851     96.066    8.62437    8.60619 3.5831e+02     2.3417     1.7867    63.9748   997.6485  0.000e+00
     -0.034    22.7007    22.7061     98.230  93.723128     -0.048     8.2748     95.946    8.62444    8.60626 3.7632e+02     2.3586     1.8054    63.6772   997.6486  0.000e+00
     -0.031    22.6998    22.7053     98.231  93.723128     -0.045     8.2569     95.737    8.62459    8.60640 3.7144e+02     2.3289     1.7646    64.3302   997.6488  0.000e+00
     -0.031    22.6995    22.7049     98.136  93.631544     -0.045     8.2524     95.684    8.62464    8.60646 3.5594e+02     2.3077     1.7694    64.2532   997.6489  0.000e+00
     -0.031    22.6996    22.7051     98.136  93.631544     -0.045     8.2496     95.652    8.62462    8.60643 3.6679e+02     2.2802     1.7743    64.1732   997.6488  0.000e+00
     -0.036    22.7000    22.7054     98.231  93.723128     -0.051     8.2496     95.652    8.62456    8.60637 3.6087e+02     2.2357     1.7572    64.4486   997.6488  0.000e+00
     -0.031    22.6997    22.7052     98.040  93.539959     -0.045     8.2580     95.749    8.62460    8.60642 3.5897e+02     2.2526     1.8092    63.6165   997.6488  0.000e+00
     -0.029    22.6983    22.7037     97.979  93.478904     -0.041     8.2709     95.897    8.62485    8.60666 3.7255e+02     2.3099     1.7932    63.8712   997.6491  0.000e+00
     -0.024    22.6988    22.7042     97.978  93.478904     -0.034     8.2770     95.968    8.62476    8.60657 3.5358e+02     2.3120     1.7719    64.2117   997.6490  0.000e+00
     -0.020    22.7006    22.7060     97.974  93.478903     -0.029     8.2694     95.883    8.62446    8.60628 2.5585e+02     2.2908     1.7914    63.8993   997.6486  0.000e+00
     -0.016    22.7030    22.7085     97.873  93.387319     -0.023     8.2579     95.754    8.62407    8.60588 2.0458e+02     2.2166     1.7685    64.2665   997.6480  0.000e+00
     -0.015    22.7054    22.7109     97.868  93.387318     -0.021     8.2407     95.559    8.62367    8.60548 3.4629e+02     2.3374     1.7838    64.0222   997.6475  0.000e+00
     -0.015    22.7071    22.7125     97.769  93.295734     -0.021     8.2278     95.413    8.62340    8.60521 2.9830e+02     2.3311     1.7766    64.1362   997.6471  0.000e+00
     -0.002    22.7081    22.7136     97.798  93.326262     -0.002     8.2270     95.405    8.62323    8.60504 8.4554e+01     2.4837     1.7821    64.0489   997.6469  0.000e+00
      0.036    22.7086    22.7141     97.765  93.295734      0.051     8.2368     95.520    8.62315    8.60495 1.6687e+02     2.4710     1.7767    64.1347   997.6469  0.000e+00
      0.053    22.7085    22.7140     97.702  93.234679      0.076     8.2535     95.713    8.62316    8.60497 9.4622e+01     1.9240     1.7688    64.2621   997.6470  0.000e+00
      0.050    22.7093    22.7148     97.764  93.295734      0.071     8.2610     95.802    8.62303    8.60484 8.1660e+01     1.8541     1.7633    64.3509   997.6468  0.000e+00
      0.043    22.7102    22.7156     97.762  93.295734      0.062     8.2738     95.951    8.62289    8.60470 7.9481e+01     1.9664     1.7771    64.1288   997.6466  0.000e+00
      0.038    22.7106    22.7161     97.857  93.387317      0.054     8.2798     96.022    8.62282    8.60462 1.0679e+02     2.3925     1.7792    64.0948   997.6465  0.000e+00
      0.043    22.7092    22.7147     97.956  93.478901      0.062     8.2805     96.027    8.62304    8.60485 9.6860e+01     1.6739     1.7773    64.1259   997.6469  0.000e+00
      0.052    22.7064    22.7118     97.866  93.387318      0.074     8.2720     95.924    8.62351    8.60532 1.0574e+02     1.8392     1.7730    64.1940   997.6475  0.000e+00
      0.074    22.7040    22.7094     97.967  93.478903      0.105     8.2691     95.886    8.62391    8.60572 2.7267e+02     1.9050     1.7875    63.9630   997.6482  0.000e+00
      0.106    22.7046    22.7100     97.710  93.234681      0.151     8.2695     95.891    8.62382    8.60563 1.7953e+02     1.9792     1.7656    64.3139   997.6482  0.000e+00
      0.155    22.7078    22.7132     97.703  93.234680      0.221     8.2729     95.937    8.62329    8.60510 1.1847e+02     2.0428     1.7670    64.2917   997.6476  0.000e+00
      0.193    22.7126    22.7181     97.341  92.898879      0.274     8.2682     95.891    8.62250    8.60431 1.1027e+02     2.1042     1.7925    63.8830   997.6465  0.000e+00
      0.217    22.7172    22.7226     97.332  92.898878      0.309     8.2681     95.898    8.62175    8.60355 1.4833e+02     2.1381     1.7846    64.0089   997.6456  0.000e+00
      0.254    22.7198    22.7252     97.327  92.898877      0.362     8.2710     95.937    8.62133    8.60313 1.0753e+02     2.1509     1.7845    64.0104   997.6451  0.000e+00
      0.285    22.7215    22.7270     97.419  92.990458      0.405     8.2743     95.978    8.62104    8.60284 9.3160e+01     2.1615     1.8040    63.6994   997.6449  0.000e+00
      0.303    22.7229    22.7283     97.416  92.990458      0.430     8.2757     95.997    8.62081    8.60261 9.1656e+01     2.1551     1.8028    63.7187   997.6446  0.000e+00
      0.303    22.7235    22.7289     97.319  92.898877      0.430     8.2649     95.873    8.62072    8.60251 1.1200e+02     2.1318     1.7899    63.9245   997.6445  0.000e+00
      0.316    22.7235    22.7289     97.223  92.807296      0.449     8.2540     95.746    8.62072    8.60252 1.1177e+02     2.1763     1.8063    63.6624   997.6445  0.000e+00
      0.350    22.7236    22.7290     97.319  92.898877      0.498     8.2452     95.645    8.62070    8.60250 1.3870e+02     2.2314     1.8230    63.3974   997.6447  0.000e+00
      0.395    22.7232    22.7287     97.384  92.959932      0.562     8.2506     95.706    8.62076    8.60255 9.7350e+01     2.1996     1.8116    63.5780   997.6450  0.000e+00
      0.436    22.7225    22.7280     97.417  92.990459      0.619     8.2481     95.677    8.62087    8.60267 1.0094e+02     2.1636     1.7981    63.7927   997.6453  0.000e+00
      0.468    22.7218    22.7272     97.323  92.898879      0.666     8.2502     95.699    8.62100    8.60280 1.0108e+02     2.2060     1.8075    63.6432   997.6456  0.000e+00
      0.508    22.7214    22.7269     97.323  92.898879      0.723     8.2517     95.715    8.62106    8.60286 1.0492e+02     2.1869     1.7981    63.7927   997.6459  0.000e+00
      0.555    22.7212    22.7266     97.324  92.898879      0.790     8.2545     95.748    8.62110    8.60290 1.1745e+02     2.1551     1.7814    64.0607   997.6461  0.000e+00
      0.595    22.7212    22.7266     97.420  92.990461      0.846     8.2669     95.892    8.62110    8.60290 9.8992e+01     2.1827     1.7879    63.9556   997.6464  0.000e+00
      0.637    22.7211    22.7265     97.324  92.898880      0.905     8.2710     95.939    8.62111    8.60291 8.3898e+01     2.2420     1.8043    63.6935   997.6465  0.000e+00
      0.674    22.7209    22.7263     97.420  92.990462      0.959     8.2769     96.007    8.62114    8.60294 1.3276e+02     2.2653     1.7825    64.0429   997.6468  0.000e+00
      0.710    22.7212    22.7266     97.324  92.898881      1.010     8.2808     96.053    8.62110    8.60290 1.0822e+02     2.2717     1.7784    64.1081   997.6468  0.000e+00
      0.745    22.7213    22.7268     97.228  92.807300      1.060     8.2853     96.105    8.62107    8.60287 9.7283e+01     2.2759     1.8004    63.7572   997.6469  0.000e+00
      0.779    22.7216    22.7270     97.323  92.898881      1.109     8.2923     96.187    8.62103    8.60283 9.8494e+01     2.3077     1.7867    63.9748   997.6470  0.000e+00
      0.815    22.7217    22.7271     97.323  92.898882      1.159     8.2994     96.269    8.62101    8.60281 1.1518e+02     2.3565     1.7896    63.9289   997.6472  0.000e+00
      0.865    22.7219    22.7274     97.322  92.898882      1.230     8.3055     96.340    8.62097    8.60277 1.2463e+02     2.3756     1.8097    63.6091   997.6473  0.000e+00
      0.912    22.7222    22.7276     97.226  92.807301      1.298     8.3026     96.307    8.62093    8.60273 9.5647e+01     2.3756     1.8127    63.5603   997.6475  0.000e+00
      0.944    22.7225    22.7279     97.321  92.898882      1.343     8.2895     96.156    8.62089    8.60268 1.0140e+02     2.4710     1.7786    64.1051   997.6476  0.000e+00
      0.969    22.7225    22.7280     97.321  92.898883      1.379     8.2881     96.140    8.62087    8.60267 8.2261e+01     2.4773     1.7848    64.0059   997.6477  0.000e+00
      1.014    22.7222    22.7276     97.226  92.807302      1.443     8.2846     96.099    8.62093    8.60273 8.6474e+01     2.4646     1.7790    64.0977   997.6479  0.000e+00
      1.060    22.7218    22.7272     97.323  92.898884      1.507     8.2846     96.097    8.62100    8.60280 9.7461e+01     2.4689     1.7824    64.0444   997.6482  0.000e+00
      1.105    22.7218    22.7273     97.323  92.898884      1.571     8.2853     96.106    8.62099    8.60278 8.3208e+01     2.4858     1.7805    64.0740   997.6484  0.000e+00
      1.147    22.7211    22.7265     97.324  92.898885      1.632     8.2875     96.131    8.62111    8.60291 8.8803e+01     2.5367     1.8006    63.7527   997.6488  0.000e+00
      1.191    22.7212    22.7266     97.324  92.898885      1.694     8.2879     96.136    8.62110    8.60290 1.1053e+02     2.6278     1.7762    64.1436   997.6490  0.000e+00
      1.231    22.7214    22.7269     97.419  92.990467      1.751     8.2901     96.161    8.62105    8.60285 8.2204e+01     2.6427     1.7910    63.9067   997.6491  0.000e+00
      1.268    22.7217    22.7271     97.323  92.898885      1.804     8.2958     96.227    8.62101    8.60281 7.8991e+01     2.6215     1.8155    63.5158   997.6492  0.000e+00
      1.302    22.7224    22.7278     97.417  92.990467      1.852     8.2949     96.219    8.62090    8.60270 7.4850e+01     2.6448     1.7956    63.8327   997.6492  0.000e+00
      1.335    22.7226    22.7281     97.321  92.898886      1.899     8.3019     96.300    8.62086    8.60266 8.0287e+01     2.6893     1.7970    63.8105   997.6493  0.000e+00
      1.370    22.7229    22.7283     97.320  92.898886      1.949     8.2938     96.206    8.62082    8.60261 7.8648e+01     2.7699     1.8003    63.7587   997.6494  0.000e+00
      1.411    22.7230    22.7284     97.416  92.990468      2.007     8.2778     96.021    8.62080    8.60260 8.0619e+01     2.7805     1.8124    63.5647   997.6496  0.000e+00
      1.445    22.7229    22.7283     97.225  92.807306      2.055     8.2634     95.854    8.62082    8.60262 8.1305e+01     2.7996     1.8025    63.7231   997.6497  0.000e+00
      1.479    22.7228    22.7283     97.417  92.990468      2.104     8.2530     95.733    8.62083    8.60263 7.5091e+01     2.7148     1.7924    63.8845   997.6499  0.000e+00
      1.513    22.7226    22.7281     97.417  92.990469      2.152     8.2444     95.633    8.62086    8.60265 7.7468e+01     2.6830     1.7895    63.9304   997.6501  0.000e+00
      1.547    22.7223    22.7277     97.322  92.898888      2.201     8.2546     95.751    8.62091    8.60271 7.8540e+01     2.7635     1.8011    63.7453   997.6503  0.000e+00
      1.573    22.7224    22.7278     97.417  92.990469      2.237     8.2579     95.789    8.62090    8.60270 7.2787e+01     2.7614     1.8111    63.5869   997.6504  0.000e+00
      1.603    22.7224    22.7278     97.322  92.898888      2.280     8.2686     95.913    8.62090    8.60270 7.4457e+01     2.7444     1.8258    63.3530   997.6505  0.000e+00
      1.640    22.7222    22.7276     97.226  92.807308      2.332     8.2827     96.077    8.62093    8.60273 6.9990e+01     2.7572     1.7914    63.8993   997.6507  0.000e+00
      1.665    22.7212    22.7266     97.324  92.898889      2.368     8.2924     96.187    8.62110    8.60290 7.1105e+01     2.8208     1.8104    63.5973   997.6511  0.000e+00
      1.695    22.7189    22.7244     97.329  92.898890      2.410     8.2970     96.236    8.62147    8.60327 7.0392e+01     2.8398     1.7957    63.8312   997.6517  0.000e+00
      1.732    22.7186    22.7240     97.329  92.898890      2.463     8.2959     96.223    8.62152    8.60333 7.0344e+01     2.9352     1.7916    63.8964   997.6520  0.000e+00
      1.765    22.7187    22.7242     97.329  92.898891      2.510     8.2941     96.202    8.62150    8.60330 7.0215e+01     3.0476     1.8060    63.6669   997.6521  0.000e+00
      1.799    22.7190    22.7244     97.328  92.898891      2.559     8.2938     96.200    8.62145    8.60325 7.1236e+01     3.0794     1.7864    63.9808   997.6522  0.000e+00
      1.832    22.7195    22.7250     97.327  92.898891      2.605     8.2944     96.208    8.62137    8.60317 7.2587e+01     3.0836     1.7720    64.2103   997.6522  0.000e+00
      1.874    22.7193    22.7248     97.328  92.898891      2.665     8.2903     96.160    8.62140    8.60320 7.5505e+01     2.9458     1.7753    64.1584   997.6524  0.000e+00
      1.919    22.7198    22.7252     97.327  92.898892      2.729     8.2954     96.219    8.62133    8.60313 6.9066e+01     2.9628     1.7776    64.1214   997.6525  0.000e+00
      1.958    22.7205    22.7259     97.421  92.990473      2.785     8.2958     96.225    8.62121    8.60301 6.9878e+01     2.8865     1.7896    63.9289   997.6526  0.000e+00
      1.997    22.7210    22.7264     97.420  92.990473      2.840     8.2937     96.203    8.62113    8.60292 6.6595e+01     2.9034     1.8320    63.2552   997.6526  0.000e+00
      2.030    22.7211    22.7265     97.324  92.898892      2.887     8.2875     96.131    8.62111    8.60291 6.7455e+01     2.9416     1.8043    63.6950   997.6527  0.000e+00
      2.068    22.7216    22.7270     97.419  92.990474      2.941     8.2829     96.077    8.62103    8.60282 6.6321e+01     3.0582     1.7816    64.0563   997.6528  0.000e+00
      2.105    22.7205    22.7259     97.229  92.807312      2.995     8.2803     96.046    8.62121    8.60301 6.6230e+01     2.9501     1.7981    63.7927   997.6532  0.000e+00
      2.131    22.7170    22.7225     97.332  92.898894      3.030     8.2817     96.056    8.62178    8.60358 6.6108e+01     2.8250     1.8097    63.6091   997.6541  0.000e+00
      2.161    22.7132    22.7187     97.340  92.898896      3.074     8.2850     96.087    8.62240    8.60421 6.5281e+01     2.7338     1.7936    63.8653   997.6552  0.000e+00
      2.192    22.7124    22.7179     97.342  92.898896      3.118     8.2788     96.014    8.62253    8.60434 6.9003e+01     2.7381     1.7911    63.9052   997.6555  0.000e+00
      2.235    22.7083    22.7137     97.350  92.898898      3.179     8.2771     95.986    8.62321    8.60502 6.6412e+01     2.8017     1.7773    64.1259   997.6566  0.000e+00
      2.277    22.7046    22.7100     97.358  92.898899      3.238     8.2835     96.053    8.62382    8.60563 6.6351e+01     2.8038     1.7908    63.9097   997.6577  0.000e+00
      2.318    22.7015    22.7070     97.364  92.898901      3.298     8.2907     96.132    8.62432    8.60613 6.7285e+01     2.9056     1.7920    63.8904   997.6586  0.000e+00
      2.357    22.6994    22.7048     97.368  92.898902      3.352     8.3029     96.269    8.62468    8.60649 6.4923e+01     2.9225     1.7797    64.0874   997.6593  0.000e+00
      2.407    22.6996    22.7050     97.272  92.807321      3.424     8.3142     96.401    8.62465    8.60646 6.1266e+01     2.9925     1.7879    63.9556   997.6594  0.000e+00
      2.474    22.6999    22.7053     97.367  92.898903      3.520     8.3150     96.410    8.62459    8.60640 6.3729e+01     3.0221     1.7957    63.8312   997.6597  0.000e+00
      2.534    22.7020    22.7074     97.363  92.898902      3.604     8.3169     96.437    8.62425    8.60606 5.9673e+01     2.8992     1.7794    64.0918   997.6595  0.000e+00
      2.579    22.7050    22.7104     97.453  92.990483      3.668     8.3175     96.449    8.62375    8.60556 5.7789e+01     2.8716     1.8025    63.7231   997.6590  0.000e+00
      2.624    22.7085    22.7139     97.446  92.990483      3.732     8.3119     96.390    8.62318    8.60499 6.0070e+01     2.9162     1.7679    64.2769   997.6584  0.000e+00
      2.659    22.7104    22.7159     97.250  92.807320      3.782     8.3032     96.293    8.62286    8.60467 5.9087e+01     2.9988     1.7762    64.1436   997.6580  0.000e+00
      2.705    22.7075    22.7130     97.352  92.898902      3.848     8.2843     96.068    8.62334    8.60515 6.0222e+01     3.0285     1.7814    64.0592   997.6589  0.000e+00
      2.752    22.7016    22.7071     97.364  92.898904      3.915     8.2738     95.936    8.62431    8.60612 6.0029e+01     3.0264     1.7892    63.9349   997.6605  0.000e+00
      2.801    22.6960    22.7015     97.215  92.746272      3.984     8.2677     95.854    8.62523    8.60705 5.7670e+01     3.1133     1.7972    63.8075   997.6620  0.000e+00
      2.847    22.6939    22.6994     97.284  92.807327      4.049     8.2620     95.784    8.62557    8.60739 5.4521e+01     3.1493     1.7706    64.2325   997.6627  0.000e+00
      2.884    22.6919    22.6973     97.288  92.807328      4.102     8.2660     95.828    8.62591    8.60773 5.4173e+01     3.1387     1.7756    64.1525   997.6634  0.000e+00
      2.918    22.6889    22.6944     97.294  92.807329      4.151     8.2691     95.858    8.62639    8.60821 5.2378e+01     3.1345     1.7901    63.9215   997.6642  0.000e+00
      2.960    22.6892    22.6946     97.229  92.746275      4.210     8.2778     95.960    8.62635    8.60817 5.1936e+01     3.2384     1.7993    63.7735   997.6643  0.000e+00
      3.001    22.6894    22.6949     97.293  92.807329      4.268     8.2858     96.053    8.62631    8.60813 5.0783e+01     3.2723     1.8031    63.7128   997.6644  0.000e+00
      3.041    22.6865    22.6920     97.299  92.807331      4.326     8.2895     96.090    8.62679    8.60861 5.0470e+01     3.2575     1.7789    64.1007   997.6653  0.000e+00
      3.084    22.6835    22.6889     97.305  92.807332      4.387     8.2901     96.092    8.62729    8.60911 5.1877e+01     3.2257     1.7898    63.9260   997.6662  0.000e+00
      3.125    22.6814    22.6869     97.309  92.807333      4.445     8.2801     95.972    8.62763    8.60945 4.8921e+01     3.2723     1.7967    63.8149   997.6669  0.000e+00
      3.171    22.6792    22.6846     97.314  92.807334      4.510     8.2792     95.958    8.62800    8.60983 4.8698e+01     3.1939     1.8055    63.6757   997.6676  0.000e+00
      3.222    22.6777    22.6831     97.413  92.898916      4.582     8.2751     95.907    8.62824    8.61007 4.5976e+01     3.2914     1.7943    63.8534   997.6682  0.000e+00
      3.272    22.6764    22.6819     97.319  92.807336      4.654     8.2771     95.928    8.62845    8.61028 4.7323e+01     3.2829     1.8068    63.6550   997.6687  0.000e+00
      3.314    22.6750    22.6805     97.322  92.807336      4.713     8.2690     95.832    8.62868    8.61051 4.6018e+01     3.3592     1.8086    63.6254   997.6692  0.000e+00
      3.352    22.6750    22.6805     97.354  92.837864      4.768     8.2669     95.807    8.62868    8.61051 4.4280e+01     3.3316     1.7997    63.7675   997.6694  0.000e+00
      3.398    22.6759    22.6813     97.320  92.807337      4.834     8.2743     95.895    8.62854    8.61037 4.4159e+01     3.2914     1.8211    63.4270   997.6694  0.000e+00
      3.442    22.6759    22.6813     97.320  92.807337      4.896     8.2757     95.911    8.62854    8.61037 4.2637e+01     3.2744     1.7977    63.8001   997.6696  0.000e+00
      3.478    22.6761    22.6815     97.320  92.807338      4.946     8.2825     95.990    8.62851    8.61034 4.2413e+01     3.2999     1.8252    63.3619   997.6697  0.000e+00
      3.509    22.6766    22.6820     97.415  92.898919      4.992     8.2893     96.069    8.62842    8.61025 4.1348e+01     3.2426     1.7852    63.9985   997.6698  0.000e+00
      3.550    22.6776    22.6831     97.317  92.807338      5.049     8.2935     96.120    8.62825    8.61008 4.0089e+01     3.4058     1.7899    63.9245   997.6697  0.000e+00
      3.593    22.6787    22.6842     97.315  92.807338      5.110     8.2964     96.155    8.62807    8.60990 3.8707e+01     3.6412     1.8017    63.7365   997.6696  0.000e+00
      3.628    22.6781    22.6836     97.252  92.746284      5.160     8.3010     96.208    8.62817    8.61000 3.8065e+01     3.5839     1.8076    63.6417   997.6699  0.000e+00
      3.666    22.6768    22.6822     97.319  92.807339      5.215     8.2998     96.192    8.62840    8.61022 3.7865e+01     3.6475     1.8043    63.6935   997.6704  0.000e+00
      3.712    22.6745    22.6800     97.323  92.807340      5.279     8.2974     96.160    8.62876    8.61059 3.6377e+01     3.6984     1.8055    63.6757   997.6711  0.000e+00
      3.768    22.6714    22.6768     97.266  92.746288      5.359     8.2975     96.155    8.62928    8.61111 3.5520e+01     3.6624     1.7836    64.0252   997.6721  0.000e+00
      3.825    22.6601    22.6655     97.289  92.746292      5.440     8.2876     96.019    8.63114    8.61298 3.5116e+01     3.6751     1.7844    64.0118   997.6750  0.000e+00
      3.870    22.6464    22.6518     97.221  92.654716      5.504     8.2695     95.785    8.63339    8.61524 3.3898e+01     3.6348     1.7859    63.9882   997.6783  0.000e+00
      3.917    22.6381    22.6435     97.141  92.563139      5.571     8.2542     95.593    8.63476    8.61661 3.3527e+01     3.5542     1.7950    63.8431   997.6805  0.000e+00
      3.984    22.6221    22.6275     97.270  92.654724      5.667     8.2450     95.457    8.63740    8.61926 3.1668e+01     3.5267     1.7954    63.8357   997.6845  0.000e+00
      4.049    22.6062    22.6117     97.303  92.654729      5.759     8.2370     95.336    8.64001    8.62188 3.1596e+01     3.5394     1.8017    63.7350   997.6885  0.000e+00
      4.099    22.5931    22.5986     97.073  92.410522      5.831     8.2257     95.181    8.64217    8.62406 3.0361e+01     3.5288     1.8279    63.3189   997.6917  0.000e+00
      4.136    22.5793    22.5847     97.005  92.318947      5.882     8.2173     95.059    8.64446    8.62635 2.9830e+01     3.5648     1.7993    63.7735   997.6951  0.000e+00
      4.170    22.5482    22.5537     97.068  92.318957      5.931     8.2103     94.921    8.64958    8.63150 2.8928e+01     3.5521     1.8060    63.6669   997.7025  0.000e+00
      4.208    22.5229    22.5283     97.024  92.227386      5.985     8.1945     94.693    8.65377    8.63570 2.8815e+01     3.6496     1.7933    63.8697   997.7085  0.000e+00
      4.239    22.4994    22.5048     97.007  92.166342      6.029     8.1677     94.341    8.65766    8.63961 2.8809e+01     3.5436     1.7653    64.3183   997.7141  0.000e+00
      4.274    22.4742    22.4796     97.123  92.227402      6.079     8.1304     93.865    8.66182    8.64379 2.7512e+01     3.4694     1.7785    64.1066   997.7201  0.000e+00
      4.345    22.4551    22.4605     97.001  92.074778      6.181     8.0843     93.298    8.66499    8.64697 2.6292e+01     3.4376     1.7865    63.9778   997.7248  0.000e+00
      4.429    22.4353    22.4406     96.946  91.983207      6.299     8.0242     92.570    8.66829    8.65028 2.5467e+01     3.5839     1.7792    64.0948   997.7298  0.000e+00
      4.498    22.4061    22.4114     96.651  91.647437      6.398     7.9618     91.798    8.67314    8.65515 2.4127e+01     3.5394     1.7917    63.8949   997.7368  0.000e+00
      4.567    22.3399    22.3453     96.367  91.250633      6.496     7.9089     91.073    8.68413    8.66619 2.3634e+01     3.4716     1.7632    64.3524   997.7522  0.000e+00
      4.621    22.2407    22.2460     96.214  90.914895      6.573     7.8537     90.266    8.70067    8.68279 2.3808e+01     3.5182     1.7633    64.3509   997.7752  0.000e+00
      4.661    22.1415    22.1468     96.158  90.670733      6.629     7.7994     89.471    8.71727    8.69946 2.3009e+01     3.4885     1.7816    64.0563   997.7981  0.000e+00
      4.691    22.0680    22.0733     96.405  90.762327      6.673     7.7294     88.543    8.72958    8.71182 2.2852e+01     3.4991     1.7738    64.1821   997.8151  0.000e+00
      4.724    22.0171    22.0223     96.412  90.670771      6.720     7.6438     87.476    8.73815    8.72043 2.2313e+01     3.5670     1.7754    64.1555   997.8268  0.000e+00
      4.762    21.9872    21.9925     96.214  90.426591      6.773     7.5539     86.397    8.74317    8.72547 2.1853e+01     3.5966     1.7766    64.1362   997.8337  0.000e+00
      4.805    21.9518    21.9571     96.189  90.335032      6.834     7.4707     85.388    8.74914    8.73146 2.1139e+01     3.6518     1.7574    64.4457   997.8419  0.000e+00
      4.851    21.9158    21.9210     96.263  90.335043      6.899     7.3984     84.503    8.75522    8.73757 2.0779e+01     3.7069     1.7860    63.9867   997.8503  0.000e+00
      4.894    21.8873    21.8926     96.061  90.090867      6.960     7.3514     83.920    8.76003    8.74240 2.0378e+01     3.7238     1.7923    63.8860   997.8568  0.000e+00
      4.943    21.8272    21.8325     95.761  89.694091      7.031     7.3450     83.750    8.77020    8.75261 1.9698e+01     3.7768     1.7865    63.9778   997.8705  0.000e+00
      4.979    21.7452    21.7505     95.472  89.266808      7.082     7.3574     83.758    8.78411    8.76658 1.9916e+01     3.7832     1.7969    63.8120   997.8890  0.000e+00
      4.997    21.6413    21.6464     95.423  89.022666      7.107     7.3798     83.844    8.80181    8.78435 1.9875e+01     3.9867     1.8202    63.4418   997.9123  0.000e+00
      5.019    21.5396    21.5448     95.828  89.205824      7.139     7.4205     84.141    8.81915    8.80176 1.9416e+01     4.0694     1.8075    63.6432   997.9352  0.000e+00
      5.061    21.4748    21.4800     95.436  88.717504      7.198     7.4617     84.501    8.83026    8.81292 1.8474e+01     4.2538     1.7778    64.1185   997.9496  0.000e+00
      5.103    21.4265    21.4316     94.977  88.198670      7.259     7.4906     84.749    8.83856    8.82126 1.8205e+01     4.3216     1.7951    63.8416   997.9604  0.000e+00
      5.144    21.3306    21.3358     94.910  87.954539      7.317     7.5066     84.772    8.85504    8.83781 1.7667e+01     4.3937     1.8183    63.4714   997.9817  0.000e+00
      5.175    21.2185    21.2236     94.876  87.710415      7.360     7.5097     84.622    8.87440    8.85725 1.7899e+01     4.4679     1.8539    62.9088   998.0064  0.000e+00
      5.200    21.0895    21.0946     95.142  87.710452      7.396     7.5004     84.305    8.89676    8.87969 1.7418e+01     4.4298     1.8140    63.5395   998.0348  0.000e+00
      5.247    20.9925    20.9975     94.978  87.374770      7.464     7.4816     83.934    8.91365    8.89666 1.6988e+01     4.5209     1.8209    63.4300   998.0560  0.000e+00
      5.307    20.9041    20.9091     94.363  86.642355      7.548     7.4654     83.607    8.92910    8.91217 1.6362e+01     4.6799     1.8790    62.5164   998.0752  0.000e+00
      5.352    20.7594    20.7644     94.128  86.154118      7.612     7.4450     83.143    8.95448    8.93766 1.5932e+01     4.8410     1.9098    62.0367   998.1064  0.000e+00
      5.388    20.5842    20.5892     94.122  85.818482      7.664     7.4212     82.592    8.98536    8.96867 1.5504e+01     5.2417     1.9532    61.3674   998.1439  0.000e+00
      5.422    20.4097    20.4146     94.315  85.665949      7.712     7.4023     82.099    9.01632    8.99976 1.5708e+01     5.3710     2.0205    60.3429   998.1811  0.000e+00
      5.464    20.2527    20.2576     94.373  85.421864      7.771     7.3920     81.731    9.04435    9.02790 1.4949e+01     5.4367     2.1149    58.9363   998.2142  0.000e+00
      5.514    20.1242    20.1290     94.168  84.994681      7.843     7.3916     81.519    9.06740    9.05106 1.4564e+01     5.6169     2.1973    57.7340   998.2412  0.000e+00
      5.565    19.9897    19.9945     94.179  84.750597      7.915     7.4001     81.395    9.09164    9.07539 1.4253e+01     5.7780     2.2723    56.6620   998.2692  0.000e+00
      5.603    19.8339    19.8386     94.064  84.353949      7.970     7.3868     80.997    9.11988    9.10375 1.4030e+01     5.7780     2.3736    55.2450   998.3014  0.000e+00
      5.633    19.6803    19.6850     94.012  84.018335      8.012     7.3329     80.159    9.14787    9.13185 1.3899e+01     6.0939     2.4287    54.4884   998.3328  0.000e+00
      5.658    19.5348    19.5395     94.148  83.865806      8.048     7.2213     78.711    9.17451    9.15860 1.3599e+01     6.6005     2.5057    53.4505   998.3624  0.000e+00
      5.690    19.4130    19.4177     94.303  83.774299      8.093     7.0382     76.528    9.19692    9.18110 1.3252e+01     6.7828     2.5139    53.3410   998.3870  0.000e+00
      5.733    19.3267    19.3313     94.211  83.530216      8.154     6.7828     73.623    9.21287    9.19712 1.2769e+01     7.0563     2.5519    52.8361   998.4044  0.000e+00
      5.773    19.2503    19.2549     94.098  83.286132      8.210     6.4934     70.374    9.22702    9.21133 1.2360e+01     7.7686     2.6723    51.2696   998.4197  0.000e+00
      5.811    19.1500    19.1546     94.036  83.042059      8.265     6.1928     66.980    9.24568    9.23006 1.2369e+01    10.4333     2.7805    49.9015   998.4398  0.000e+00
      5.842    19.0369    19.0414     93.758  82.584407      8.309     5.9263     63.951    9.26680    9.25126 1.1823e+01    11.8070     2.9576    47.7397   998.4621  0.000e+00
      5.880    18.9085    18.9130     93.962  82.523418      8.364     5.7133     61.494    9.29085    9.27541 1.1293e+01    12.7249     2.9653    47.6479   998.4874  0.000e+00
      5.930    18.8103    18.8148     93.546  81.974242      8.434     5.5689     59.821    9.30933    9.29397 1.0763e+01    13.8527     3.1867    45.0820   998.5065  0.000e+00
      5.971    18.6331    18.6376     93.052  81.211531      8.493     5.5217     59.101    9.34287    9.32763 1.0701e+01    14.4654     3.5654    41.0103   998.5407  0.000e+00
      6.013    18.3540    18.3584     93.194  80.814981      8.553     5.5590     59.163    9.39611    9.38108 9.9560e+00    16.4771     3.8476    38.2163   998.5941  0.000e+00
      6.053    18.0884    18.0927     93.273  80.387927      8.609     5.6330     59.626    9.44728    9.43244 9.7015e+00    20.6046     4.2131    34.8790   998.6440  0.000e+00
      6.091    17.8497    17.8540     93.615  80.235447      8.664     5.7260     60.313    9.49369    9.47903 9.3887e+00    23.9710     4.3183    33.9743   998.6884  0.000e+00
      6.129    17.6514    17.6557     93.871  80.082958      8.717     5.8324     61.184    9.53255    9.51804 8.6950e+00    26.1227     4.3891    33.3776   998.7247  0.000e+00
      6.180    17.5005    17.5047     93.631  79.594873      8.790     5.9413     62.132    9.56234    9.54793 8.2222e+00    28.6877     4.4595    32.7958   998.7521  0.000e+00
      6.235    17.3401    17.3443     93.697  79.350857      8.868     6.0316     62.868    9.59418    9.57988 7.6077e+00    31.4245     4.4852    32.5855   998.7810  0.000e+00
      6.286    17.1418    17.1459     93.813  79.076347      8.940     6.0709     63.017    9.63380    9.61964 7.1562e+00    33.8200     4.4032    33.2607   998.8163  0.000e+00
      6.336    16.9554    16.9595     94.048  78.923862      9.012     6.0466     62.521    9.67130    9.65728 6.7038e+00    36.0183     4.3245    33.9210   998.8491  0.000e+00
      6.390    16.7865    16.7905     94.136  78.679856      9.089     5.9481     61.286    9.70552    9.69161 6.2844e+00    37.2966     4.2665    34.4170   998.8784  0.000e+00
      6.446    16.6069    16.6109     93.956  78.191810      9.168     5.7508     59.031    9.74215    9.72836 6.0070e+00    38.5431     4.0615    36.2264   998.9092  0.000e+00
      6.504    16.3741    16.3781     93.895  77.703789      9.251     5.4311     55.476    9.79000    9.77637 5.4746e+00    38.7382     3.9333    37.4064   998.9486  0.000e+00
      6.544    16.0904    16.0942     94.135  77.368312      9.307     4.9838     50.603    9.84889    9.83544 5.3666e+00    38.0662     3.7231    39.4245   998.9957  0.000e+00
      6.582    15.8178    15.8216     94.166  76.880320      9.362     4.4118     44.536    9.90607    9.89280 5.0597e+00    37.3814     3.5353    41.3197   999.0400  0.000e+00
      6.635    15.5767    15.5804     94.312  76.544845      9.437     3.7438     37.599    9.95714    9.94402 4.8641e+00    37.0105     3.3772    42.9854   999.0786  0.000e+00
      6.684    15.3525    15.3562     94.232  76.056859      9.507     2.9915     29.900   10.00506    9.99207 4.5566e+00    36.2579     3.2823    44.0174   999.1139  0.000e+00
      6.716    15.1345    15.1381     94.630  75.965406      9.553     2.1898     21.784   10.05206   10.03920 4.4575e+00    34.5132     3.1728    45.2390   999.1477  0.000e+00
      6.749    14.9792    14.9828     94.998  75.965445      9.600     1.4194     14.074   10.08576   10.07300 4.3795e+00    33.0229     3.0753    46.3554   999.1715  0.000e+00
      6.791    14.8950    14.8986     94.587  75.477437      9.659     0.7486      7.409   10.10414   10.09143 4.1140e+00    31.9269     2.9856    47.4066   999.1842  0.000e+00
      6.845    14.7671    14.7707     93.932  74.714947      9.736     0.2076      2.048   10.13217   10.11952 3.9686e+00    30.3455     2.8153    49.4691   999.2032  0.000e+00
      6.894    14.5520    14.5554     93.634  74.074503      9.806    -0.2078     -2.041   10.17963   10.16711 3.9073e+00    27.3988     2.7722    50.0051   999.2349  0.000e+00
      6.931    14.2983    14.3018     93.850  73.769573      9.858    -0.4876     -4.763   10.23607   10.22367 3.8144e+00    25.0585     2.8099    49.5357   999.2717  0.000e+00
      6.967    14.0788    14.0822     93.831  73.342646      9.909    -0.6322     -6.147   10.28537   10.27309 3.6427e+00    23.2820     2.6342    51.7596   999.3028  0.000e+00
      7.014    13.8964    13.8997     94.154  73.251195      9.976    -0.6501     -6.296   10.32667   10.31448 3.5626e+00    21.9443     2.5773    52.5014   999.3285  0.000e+00
      7.056    13.7405    13.7438     94.021  72.854760     10.036    -0.5893     -5.687   10.36221   10.35010 3.4987e+00    20.7254     2.5089    53.4076   999.3499  0.000e+00
      7.083    13.5823    13.5856     93.853  72.427836     10.075    -0.4899     -4.711   10.39847   10.38644 3.4438e+00    19.3390     2.4405    54.3285   999.3713  0.000e+00
      7.103    13.4232    13.4264     94.044  72.275390     10.103    -0.3763     -3.606   10.43519   10.42322 3.4541e+00    17.9483     2.4285    54.4914   999.3926  0.000e+00
      7.132    13.2981    13.3013     94.152  72.122936     10.143    -0.2591     -2.476   10.46421   10.45230 3.3496e+00    17.4205     2.4014    54.8616   999.4092  0.000e+00
      7.180    13.2000    13.2031     94.075  71.878989     10.212    -0.1428     -1.362   10.48710   10.47523 3.2128e+00    16.6828     2.3387    55.7292   999.4221  0.000e+00
      7.239    13.1128    13.1159     94.050  71.696034     10.297    -0.0444     -0.422   10.50750   10.49567 3.0668e+00    15.5868     2.2291    57.2765   999.4336  0.000e+00
      7.302    13.0427    13.0459     93.903  71.452085     10.386     0.0429      0.408   10.52394   10.51213 2.9523e+00    13.9969     2.1782    58.0109   999.4428  0.000e+00
      7.368    12.9461    12.9492     93.820  71.208145     10.479     0.1091      1.035   10.54669   10.53492 2.8723e+00    12.6783     2.1561    58.3322   999.4553  0.000e+00
      7.423    12.8372    12.8402     93.970  71.116685     10.558     0.1616      1.529   10.57245   10.56073 2.8337e+00    11.5378     2.0590    59.7654   999.4693  0.000e+00
      7.464    12.7350    12.7380     93.901  70.872750     10.617     0.2121      2.001   10.59672   10.58503 2.7117e+00    10.6368     1.9850    60.8803   999.4821  0.000e+00
      7.494    12.6467    12.6497     94.040  70.811782     10.659     0.2497      2.352   10.61776   10.60611 2.6497e+00     9.7613     1.9438    61.5111   999.4931  0.000e+00
      7.530    12.5774    12.5804     94.092  70.720314     10.711     0.2833      2.664   10.63433   10.62270 2.5962e+00     9.1296     1.9484    61.4400   999.5018  0.000e+00
      7.573    12.5229    12.5259     94.229  70.720327     10.772     0.2964      2.784   10.64739   10.63578 2.5403e+00     8.6865     1.9494    61.4252   999.5086  0.000e+00
      7.615    12.4699    12.4729     94.159  70.567868     10.831     0.3193      2.995   10.66012   10.64853 2.4304e+00     8.7395     1.9558    61.3275   999.5152  0.000e+00
      7.661    12.4186    12.4215     94.288  70.567880     10.897     0.3278      3.072   10.67247   10.66090 2.4573e+00     8.8773     1.9631    61.2149   999.5216  0.000e+00
      7.716    12.3628    12.3658     94.184  70.384929     10.975     0.3348      3.134   10.68593   10.67438 2.3200e+00     8.5000     1.9562    61.3215   999.5284  0.000e+00
      7.769    12.2892    12.2921     93.961  70.080008     11.050     0.3395      3.172   10.70374   10.69221 2.2607e+00     8.1269     1.9508    61.4030   999.5373  0.000e+00
      7.819    12.2008    12.2038     93.938  69.897069     11.122     0.3356      3.129   10.72517   10.71368 2.2029e+00     7.6308     1.9651    61.1853   999.5479  0.000e+00
      7.870    12.1145    12.1174     94.075  69.836102     11.194     0.3282      3.054   10.74619   10.73472 2.1182e+00     7.0245     2.0036    60.5990   999.5582  0.000e+00
      7.914    12.0388    12.0417     93.897  69.561683     11.256     0.3324      3.088   10.76470   10.75325 2.0641e+00     6.6048     2.0120    60.4717   999.5671  0.000e+00
      7.954    11.9735    11.9764     93.980  69.500713     11.314     0.3252      3.017   10.78068   10.76925 1.9725e+00     6.2868     1.9934    60.7530   999.5747  0.000e+00
      8.000    11.9205    11.9233     93.991  69.409247     11.378     0.3087      2.860   10.79371   10.78230 1.9694e+00     6.0430     1.9959    60.7160   999.5810  0.000e+00
      8.042    11.8771    11.8800     93.978  69.317780     11.439     0.3041      2.815   10.80438   10.79299 1.8920e+00     5.8331     1.9898    60.8078   999.5861  0.000e+00
      8.095    11.8371    11.8400     93.997  69.256805     11.514     0.2858      2.643   10.81424   10.80285 1.8209e+00     5.8246     2.0262    60.2570   999.5908  0.000e+00
      8.154    11.7986    11.8014     93.971  69.165337     11.598     0.2664      2.461   10.82376   10.81239 1.7744e+00     5.7271     2.0380    60.0793   999.5954  0.000e+00
      8.216    11.7562    11.7590     93.955  69.073871     11.686     0.2469      2.279   10.83425   10.82288 1.7156e+00     5.6529     2.0802    59.4486   999.6004  0.000e+00
      8.273    11.7072    11.7100     94.080  69.073882     11.767     0.2214      2.041   10.84637   10.83502 1.6183e+00     5.9264     2.1597    58.2789   999.6061  0.000e+00
      8.320    11.6545    11.6573     94.465  69.256847     11.834     0.2034      1.873   10.85945   10.84811 1.6024e+00     6.3546     2.2805    56.5450   999.6123  0.000e+00
      8.363    11.6030    11.6057     94.473  69.165382     11.895     0.1852      1.703   10.87227   10.86094 1.5729e+00     7.1072     2.3882    55.0437   999.6181  0.000e+00
      8.409    11.5483    11.5510     94.949  69.409334     11.961     0.1734      1.593   10.88589   10.87458 1.4674e+00     7.9636     2.4845    53.7333   999.6245  0.000e+00
      8.466    11.4848    11.4875     94.988  69.317871     12.042     0.1695      1.555   10.90175   10.89046 1.4065e+00     8.8900     2.5370    53.0330   999.6316  0.000e+00
      8.516    11.4164    11.4192     95.167  69.317887     12.112     0.1595      1.460   10.91888   10.90760 1.3803e+00    10.0750     2.6154    52.0040   999.6392  0.000e+00
      8.562    11.3458    11.3485     95.478  69.409381     12.178     0.1634      1.494   10.93662   10.92536 1.3377e+00    10.8933     2.6879    51.0697   999.6470  0.000e+00
      8.614    11.2847    11.2875     95.638  69.409395     12.252     0.1647      1.504   10.95200   10.94075 1.2460e+00    11.5950     2.7400    50.4093   999.6538  0.000e+00
      8.659    11.2333    11.2360     95.774  69.409407     12.316     0.1635      1.491   10.96498   10.95374 1.2022e+00    12.2988     2.7791    49.9192   999.6594  0.000e+00
      8.705    11.1878    11.1905     95.894  69.409417     12.381     0.1662      1.515   10.97649   10.96526 1.1444e+00    13.1065     2.8153    49.4691   999.6644  0.000e+00
      8.753    11.1452    11.1479     96.008  69.409427     12.450     0.1669      1.519   10.98729   10.97607 1.0954e+00    13.8230     2.8224    49.3818   999.6691  0.000e+00
      8.810    11.1042    11.1069     96.117  69.409437     12.531     0.1701      1.547   10.99770   10.98649 1.0299e+00    14.6265     2.8525    49.0116   999.6736  0.000e+00
      8.858    11.0602    11.0628     96.107  69.317969     12.598     0.1656      1.504   11.00891   10.99770 1.0145e+00    15.0610     2.8824    48.6459   999.6783  0.000e+00
      8.902    11.0136    11.0163     96.020  69.165518     12.661     0.1651      1.498   11.02077   11.00957 9.7482e-01    15.2836     2.8938    48.5082   999.6833  0.000e+00
      8.944    10.9684    10.9711     96.013  69.074052     12.722     0.1641      1.487   11.03231   11.02112 9.2245e-01    15.5083     2.8761    48.7229   999.6880  0.000e+00
      8.997    10.9270    10.9296     96.124  69.074062     12.797     0.1625      1.471   11.04291   11.03173 8.8052e-01    15.9069     2.8739    48.7495   999.6925  0.000e+00
      9.066    10.8860    10.8886     96.064  68.952103     12.895     0.1599      1.446   11.05342   11.04224 7.9937e-01    16.1040     2.8600    48.9198   999.6969  0.000e+00
      9.145    10.8354    10.8380     96.497  69.165560     13.008     0.1583      1.430   11.06638   11.05521 7.4592e-01    16.0256     2.8586    48.9361   999.7024  0.000e+00
      9.221    10.7638    10.7664     96.478  69.013116     13.116     0.1627      1.468   11.08482   11.07366 7.0958e-01    15.5995     2.8658    48.8487   999.7099  0.000e+00
      9.290    10.6788    10.6814     96.921  69.165596     13.214     0.1637      1.474   11.10675   11.09560 6.6457e-01    15.2052     2.8502    49.0397   999.7186  0.000e+00
      9.359    10.6032    10.6058     97.255  69.257091     13.311     0.1575      1.415   11.12632   11.11519 6.2470e-01    14.8787     2.8541    48.9909   999.7264  0.000e+00
      9.421    10.5461    10.5486     98.313  69.897455     13.400     0.1565      1.404   11.14113   11.13001 5.8615e-01    14.6540     2.8799    48.6770   999.7325  0.000e+00
      9.475    10.5006    10.5032     99.040  70.324378     13.477     0.1614      1.447   11.15293   11.14181 5.7761e-01    14.3297     2.8945    48.4993   999.7374  0.000e+00
      9.515    10.4582    10.4607     99.244  70.385376     13.533     0.1619      1.450   11.16400   11.15289 5.6375e-01    14.1113     2.9175    48.2209   999.7416  0.000e+00
      9.546    10.4197    10.4222     99.481  70.476868     13.578     0.1619      1.449   11.17404   11.16292 5.4135e-01    13.8739     2.9465    47.8730   999.7455  0.000e+00
      9.574    10.3898    10.3923     99.565  70.476875     13.617     0.1554      1.390   11.18187   11.17076 5.2102e-01    13.9375     2.9698    47.5946   999.7484  0.000e+00
      9.618    10.3674    10.3698     99.758  70.568363     13.680     0.1541      1.377   11.18773   11.17662 5.1074e-01    13.7488     2.9893    47.3637   999.7508  0.000e+00
      9.666    10.3496    10.3521     99.808  70.568368     13.749     0.1658      1.481   11.19238   11.18127 4.8396e-01    13.4987     3.0210    46.9891   999.7527  0.000e+00
      9.722    10.3350    10.3375     99.936  70.629360     13.828     0.1605      1.434   11.19622   11.18511 4.7224e-01    12.8373     3.0310    46.8721   999.7544  0.000e+00
      9.777    10.3179    10.3204     99.984  70.629365     13.906     0.1548      1.382   11.20069   11.18959 4.4473e-01    12.0656     3.0357    46.8173   999.7562  0.000e+00
      9.828    10.3010    10.3034    100.161  70.720853     13.978     0.1502      1.340   11.20514   11.19404 4.2734e-01    11.3067     3.0741    46.3702   999.7581  0.000e+00
      9.872    10.2863    10.2888    100.073  70.629373     14.041     0.1451      1.294   11.20898   11.19788 4.1074e-01    10.8552     3.1124    45.9275   999.7596  0.000e+00
      9.913    10.2754    10.2778    100.018  70.568386     14.100     0.1475      1.316   11.21187   11.20077 3.9405e-01    10.5202     3.1175    45.8697   999.7608  0.000e+00
      9.954    10.2665    10.2690    100.043  70.568389     14.158     0.1460      1.302   11.21420   11.20310 3.7943e-01    10.0560     3.1015    46.0533   999.7618  0.000e+00
      9.997    10.2589    10.2613     99.805  70.385425     14.219     0.1428      1.273   11.21622   11.20512 3.7451e-01     9.6553     3.1191    45.8505   999.7626  0.000e+00
     10.036    10.2526    10.2550    100.083  70.568392     14.275     0.1412      1.259   11.21787   11.20677 3.6185e-01     9.3691     3.1120    45.9319   999.7635  0.000e+00
     10.068    10.2452    10.2476    100.104  70.568394     14.321     0.1366      1.217   11.21981   11.20871 3.4241e-01     9.0130     3.1135    45.9156   999.7643  0.000e+00
     10.099    10.2373    10.2397    100.213  70.629385     14.364     0.1369      1.220   11.22189   11.21079 3.4572e-01     8.6187     3.1221    45.8164   999.7652  0.000e+00
     10.133    10.2282    10.2307    100.238  70.629388     14.413     0.1332      1.187   11.22427   11.21318 3.2550e-01     8.4364     3.1303    45.7231   999.7662  0.000e+00
     10.169    10.2187    10.2211    100.525  70.812358     14.464     0.1376      1.225   11.22678   11.21568 3.1371e-01     8.1756     3.1499    45.4995   999.7673  0.000e+00
     10.209    10.2084    10.2108    100.728  70.934341     14.521     0.1383      1.232   11.22949   11.21839 2.9959e-01     8.2774     3.1621    45.3604   999.7685  0.000e+00
     10.255    10.1982    10.2006    100.800  70.964838     14.586     0.1343      1.196   11.23217   11.22108 2.8775e-01     8.3431     3.1553    45.4374   999.7697  0.000e+00
     10.308    10.1874    10.1898    100.961  71.056326     14.661     0.1355      1.206   11.23502   11.22393 2.7248e-01     8.1756     3.1625    45.3559   999.7710  0.000e+00
     10.373    10.1727    10.1751    101.090  71.117321     14.753     0.1267      1.127   11.23890   11.22781 2.5217e-01     7.8619     3.1636    45.3441   999.7727  0.000e+00
     10.432    10.1515    10.1539    101.412  71.300299     14.838     0.1295      1.152   11.24448   11.23339 2.3667e-01     7.5121     3.1668    45.3071   999.7750  0.000e+00
     10.488    10.1271    10.1295    101.699  71.452783     14.918     0.1284      1.141   11.25094   11.23985 2.2344e-01     7.1263     3.1743    45.2227   999.7775  0.000e+00
     10.539    10.1031    10.1055    101.769  71.452789     14.989     0.1286      1.142   11.25727   11.24619 2.1773e-01     6.7510     3.1975    44.9606   999.7799  0.000e+00
     10.569    10.0822    10.0846    101.829  71.452794     15.033     0.1211      1.075   11.26282   11.25174 2.1828e-01     6.3695     3.1933    45.0080   999.7820  0.000e+00
     10.587    10.0669    10.0693    101.787  71.391806     15.058     0.1230      1.092   11.26687   11.25578 2.1456e-01     6.0642     3.2246    44.6571   999.7834  0.000e+00
     10.611    10.0571    10.0595    101.902  71.452800     15.093     0.1215      1.079   11.26948   11.25839 2.0603e-01     5.8564     3.2668    44.1892   999.7844  0.000e+00
     10.646    10.0510    10.0534    101.920  71.452802     15.143     0.1262      1.119   11.27109   11.26001 1.9820e-01     5.7674     3.2455    44.4246   999.7852  0.000e+00
     10.701    10.0456    10.0480    101.936  71.452804     15.221     0.1250      1.109   11.27252   11.26144 1.8449e-01     5.6190     3.2809    44.0337   999.7859  0.000e+00
     10.774    10.0401    10.0425    101.952  71.452805     15.324     0.1234      1.095   11.27398   11.26290 1.7259e-01     5.3943     3.3324    43.4696   999.7867  0.000e+00
     10.840    10.0356    10.0380    102.095  71.544294     15.418     0.1294      1.148   11.27516   11.26408 1.6634e-01     5.2968     3.3581    43.1912   999.7875  0.000e+00
     10.890    10.0245    10.0269    102.128  71.544297     15.489     0.1264      1.121   11.27813   11.26705 1.6373e-01     5.1526     3.3785    42.9721   999.7887  0.000e+00
     10.919    10.0142    10.0166    102.158  71.544300     15.530     0.1280      1.134   11.28087   11.26979 1.6171e-01     4.8113     3.3897    42.8522   999.7898  0.000e+00
     10.941    10.0072    10.0096    102.178  71.544302     15.561     0.1244      1.103   11.28271   11.27163 1.6075e-01     4.5824     3.4120    42.6138   999.7905  0.000e+00
     10.952    10.0023    10.0047    102.323  71.635791     15.577     0.1260      1.117   11.28402   11.27294 1.5504e-01     4.4170     3.3821    42.9336   999.7910  0.000e+00
     10.965     9.9990    10.0014    102.202  71.544304     15.596     0.1205      1.067   11.28490   11.27382 1.5426e-01     4.2856     3.3874    42.8759   999.7914  0.000e+00
     10.976     9.9970     9.9994    102.208  71.544304     15.611     0.1193      1.057   11.28543   11.27435 1.5489e-01     4.2347     3.4031    42.7086   999.7916  0.000e+00
     11.008    10.0004    10.0028    102.329  71.635792     15.657     0.1190      1.055   11.28452   11.27344 1.5038e-01     4.0609     3.4032    42.7071   999.7915  0.000e+00
     11.045    10.0046    10.0070    102.316  71.635791     15.710     0.1174      1.041   11.28340   11.27232 1.4444e-01     3.9316     3.4117    42.6168   999.7913  0.000e+00
     11.071    10.0044    10.0068    102.317  71.635791     15.747     0.1157      1.026   11.28345   11.27237 1.4302e-01     3.9231     3.4006    42.7352   999.7914  0.000e+00
     11.089    10.0033    10.0057    102.233  71.574800     15.772     0.1172      1.039   11.28376   11.27268 1.4688e-01     3.8701     3.3960    42.7841   999.7916  0.000e+00
     11.108    10.0017    10.0041    102.194  71.544304     15.799     0.1115      0.988   11.28418   11.27310 1.3956e-01     3.7980     3.4071    42.6656   999.7918  0.000e+00
     11.140    10.0024    10.0048    102.323  71.635792     15.844     0.1126      0.998   11.28398   11.27290 1.3803e-01     3.7154     3.4117    42.6168   999.7919  0.000e+00
     11.175    10.0047    10.0071    102.316  71.635792     15.894     0.1128      0.999   11.28339   11.27231 1.3646e-01     3.6581     3.4253    42.4717   999.7919  0.000e+00
     11.215    10.0022    10.0046    102.193  71.544305     15.952     0.1074      0.952   11.28406   11.27298 1.3380e-01     3.6412     3.4411    42.3044   999.7922  0.000e+00
     11.262     9.9978    10.0002    102.206  71.544306     16.018     0.1066      0.945   11.28523   11.27415 1.2792e-01     3.5224     3.4505    42.2051   999.7928  0.000e+00
     11.305     9.9921     9.9945    102.222  71.544308     16.080     0.1053      0.933   11.28674   11.27566 1.2371e-01     3.4610     3.4682    42.0186   999.7936  0.000e+00
     11.347     9.9859     9.9883    102.109  71.452822     16.140     0.1051      0.931   11.28837   11.27729 1.2439e-01     3.4376     3.4132    42.6005   999.7943  0.000e+00
     11.385     9.9804     9.9828    102.387  71.635799     16.193     0.1090      0.966   11.28984   11.27876 1.1997e-01     3.4207     3.4095    42.6405   999.7950  0.000e+00
     11.413     9.9740     9.9764    102.275  71.544313     16.233     0.1130      1.000   11.29156   11.28048 1.2000e-01     3.3974     3.4118    42.6153   999.7957  0.000e+00
     11.449     9.9669     9.9693    102.427  71.635803     16.285     0.1100      0.974   11.29342   11.28235 1.1972e-01     3.3995     3.4198    42.5309   999.7965  0.000e+00
     11.491     9.9597     9.9621    102.535  71.696797     16.344     0.1080      0.956   11.29535   11.28427 1.1793e-01     3.3931     3.4270    42.4539   999.7974  0.000e+00
     11.545     9.9527     9.9551    102.556  71.696799     16.421     0.1096      0.970   11.29722   11.28614 1.1397e-01     3.3931     3.4124    42.6094   999.7983  0.000e+00
     11.600     9.9460     9.9484    102.575  71.696801     16.499     0.1129      0.999   11.29900   11.28792 1.0972e-01     3.3168     3.4020    42.7204   999.7991  0.000e+00
     11.653     9.9404     9.9427    102.592  71.696802     16.574     0.1148      1.016   11.30051   11.28943 1.0647e-01     3.2447     3.3870    42.8803   999.7999  0.000e+00
     11.708     9.9358     9.9382    102.605  71.696804     16.652     0.1084      0.959   11.30172   11.29064 1.0755e-01     3.3910     3.3716    43.0461   999.8005  0.000e+00
     11.771     9.9323     9.9347    102.616  71.696805     16.743     0.1101      0.974   11.30266   11.29158 1.0730e-01     3.2850     3.3706    43.0565   999.8011  0.000e+00
     11.833     9.9294     9.9318    102.755  71.788295     16.830     0.1149      1.016   11.30343   11.29235 1.0299e-01     3.2151     3.3585    43.1868   999.8017  0.000e+00
     11.903     9.9274     9.9298    102.630  71.696807     16.930     0.1129      0.998   11.30395   11.29287 1.0233e-01     3.1281     3.3461    43.3215   999.8022  0.000e+00
     11.974     9.9258     9.9281    102.766  71.788297     17.030     0.1136      1.005   11.30440   11.29332 1.0140e-01     3.1366     3.3313    43.4815   999.8027  0.000e+00
     12.034     9.9243     9.9267    102.639  71.696809     17.116     0.1139      1.008   11.30479   11.29371 1.0145e-01     3.1387     3.3152    43.6576   999.8031  0.000e+00
     12.089     9.9228     9.9252    102.905  71.879787     17.194     0.1106      0.979   11.30519   11.29411 9.9490e-02     3.1197     3.3169    43.6384   999.8035  0.000e+00
     12.143     9.9207     9.9231    102.650  71.696810     17.271     0.1073      0.949   11.30575   11.29468 9.8176e-02     3.0751     3.3235    43.5673   999.8039  0.000e+00
     12.202     9.9188     9.9212    102.786  71.788300     17.355     0.1081      0.956   11.30625   11.29517 9.7481e-02     3.0115     3.3007    43.8161   999.8044  0.000e+00
     12.273     9.9172     9.9196    102.922  71.879790     17.457     0.1032      0.913   11.30667   11.29559 9.6991e-02     2.9479     3.2920    43.9108   999.8049  0.000e+00
     12.344     9.9157     9.9180    102.795  71.788302     17.557     0.1028      0.909   11.30709   11.29601 9.4794e-02     2.9416     3.2635    44.2247   999.8053  0.000e+00
     12.427     9.9136     9.9160    102.932  71.879792     17.676     0.1077      0.952   11.30763   11.29655 9.3757e-02     2.9691     3.2555    44.3136   999.8059  0.000e+00
     12.522     9.9106     9.9130    103.029  71.940786     17.810     0.1094      0.967   11.30842   11.29735 9.6282e-02     3.0433     3.2590    44.2751   999.8067  0.000e+00
     12.610     9.9060     9.9083    103.042  71.940788     17.935     0.1133      1.002   11.30967   11.29859 9.3029e-02     3.0391     3.2550    44.3195   999.8075  0.000e+00
     12.694     9.9012     9.9036    103.056  71.940790     18.056     0.1107      0.978   11.31093   11.29985 9.6216e-02     2.9225     3.2439    44.4424   999.8083  0.000e+00
     12.780     9.8973     9.8997    103.068  71.940791     18.177     0.1111      0.982   11.31197   11.30090 9.5382e-02     2.8632     3.2285    44.6141   999.8091  0.000e+00
     12.846     9.8941     9.8964    103.209  72.032282     18.271     0.1068      0.944   11.31284   11.30177 9.3972e-02     2.7911     3.2226    44.6793   999.8097  0.000e+00
     12.888     9.8914     9.8937    103.348  72.123774     18.331     0.1019      0.901   11.31356   11.30248 9.2625e-02     2.7699     3.2073    44.8510   999.8102  0.000e+00
     12.917     9.8897     9.8921    103.222  72.032284     18.373     0.1031      0.911   11.31401   11.30294 9.6813e-02     2.7423     3.2091    44.8303   999.8104  0.000e+00
     12.945     9.8881     9.8905    103.357  72.123775     18.412     0.1012      0.895   11.31443   11.30335 9.3757e-02     2.7402     3.1965    44.9724   999.8107  0.000e+00
     12.965     9.8869     9.8893    103.230  72.032285     18.440     0.1017      0.899   11.31476   11.30368 9.3994e-02     2.8462     3.1915    45.0287   999.8109  0.000e+00
     12.988     9.8862     9.8886    103.232  72.032285     18.473     0.1016      0.898   11.31495   11.30387 9.2117e-02     2.8123     3.1797    45.1620   999.8111  0.000e+00
     13.020     9.8858     9.8881    103.233  72.032285     18.518     0.1048      0.927   11.31506   11.30398 9.2625e-02     2.7529     3.1961    44.9769   999.8112  0.000e+00
     13.057     9.8855     9.8879    103.234  72.032286     18.571     0.1081      0.956   11.31512   11.30404 9.4252e-02     2.7211     3.1845    45.1072   999.8114  0.000e+00
     13.102     9.8852     9.8876    103.235  72.032286     18.635     0.1081      0.955   11.31520   11.30412 9.2244e-02     2.7211     3.1790    45.1694   999.8117  0.000e+00
     13.158     9.8855     9.8879    103.234  72.032286     18.715     0.1060      0.937   11.31512   11.30404 9.1780e-02     2.7190     3.1823    45.1324   999.8119  0.000e+00
     13.223     9.8844     9.8868    103.237  72.032287     18.807     0.1034      0.914   11.31541   11.30434 9.0693e-02     2.7169     3.1636    45.3441   999.8123  0.000e+00
     13.278     9.8822     9.8845    103.244  72.032288     18.885     0.1016      0.898   11.31602   11.30495 9.1612e-02     2.7868     3.1710    45.2597   999.8128  0.000e+00
     13.325     9.8795     9.8819    103.383  72.123779     18.953     0.1003      0.886   11.31672   11.30564 9.2477e-02     2.7911     3.1586    45.4003   999.8133  0.000e+00
     13.360     9.8770     9.8794    103.390  72.123780     19.003     0.0971      0.858   11.31739   11.30631 9.1591e-02     2.8165     3.1454    45.5499   999.8137  0.000e+00
     13.393     9.8739     9.8763    103.487  72.184775     19.049     0.1030      0.910   11.31821   11.30714 9.1235e-02     2.7656     3.1261    45.7705   999.8141  0.000e+00
     13.428     9.8708     9.8732    103.627  72.276267     19.099     0.1010      0.892   11.31903   11.30796 9.4490e-02     2.7126     3.1291    45.7364   999.8146  0.000e+00
     13.482     9.8685     9.8709    103.503  72.184777     19.176     0.1026      0.907   11.31966   11.30859 9.3972e-02     2.6194     3.1177    45.8667   999.8150  0.000e+00
     13.534     9.8670     9.8694    103.464  72.154281     19.249     0.1003      0.886   11.32007   11.30899 9.1717e-02     2.5727     3.1082    45.9763   999.8154  0.000e+00
     13.591     9.8661     9.8684    103.510  72.184778     19.331     0.1008      0.890   11.32032   11.30924 8.9230e-02     2.6363     3.0998    46.0726   999.8157  0.000e+00
     13.660     9.8652     9.8676    103.513  72.184779     19.429     0.0995      0.879   11.32055   11.30948 9.1633e-02     2.6724     3.0793    46.3095   999.8161  0.000e+00
     13.730     9.8646     9.8670    103.646  72.276270     19.529     0.1047      0.925   11.32070   11.30963 9.0901e-02     2.6745     3.0596    46.5375   999.8166  0.000e+00
     13.802     9.8645     9.8669    103.777  72.367762     19.631     0.1000      0.884   11.32073   11.30965 9.1991e-02     2.7593     3.0420    46.7433   999.8169  0.000e+00
     13.873     9.8634     9.8658    103.781  72.367763     19.732     0.1024      0.905   11.32103   11.30995 9.0797e-02     2.7444     3.0123    47.0912   999.8174  0.000e+00
     13.945     9.8620     9.8644    103.785  72.367764     19.834     0.1013      0.895   11.32138   11.31031 9.0943e-02     2.6936     3.0118    47.0971   999.8178  0.000e+00
     14.020     9.8608     9.8631    103.788  72.367765     19.942     0.1066      0.942   11.32173   11.31065 9.1591e-02     2.6914     3.0033    47.1978   999.8183  0.000e+00
     14.098     9.8592     9.8616    103.880  72.428760     20.053     0.1078      0.952   11.32213   11.31105 9.1612e-02     2.6999     3.0039    47.1904   999.8188  0.000e+00
     14.167     9.8576     9.8599    103.885  72.428761     20.150     0.1107      0.977   11.32258   11.31151 9.0797e-02     2.6914     2.9800    47.4732   999.8193  0.000e+00
     14.225     9.8563     9.8587    103.889  72.428762     20.232     0.1092      0.965   11.32291   11.31183 9.0361e-02     2.6045     2.9825    47.4436   999.8197  0.000e+00
     14.278     9.8553     9.8577    103.892  72.428762     20.307     0.1031      0.911   11.32317   11.31210 9.0693e-02     2.5770     2.9820    47.4495   999.8200  0.000e+00
     14.323     9.8543     9.8567    103.895  72.428763     20.372     0.1071      0.945   11.32344   11.31236 9.1277e-02     2.5664     2.9671    47.6272   999.8203  0.000e+00
     14.363     9.8539     9.8563    104.027  72.520255     20.429     0.0993      0.877   11.32354   11.31247 8.9969e-02     2.5812     2.9631    47.6746   999.8206  0.000e+00
     14.407     9.8534     9.8558    104.160  72.611748     20.492     0.0977      0.863   11.32368   11.31260 9.0444e-02     2.6024     2.9606    47.7042   999.8209  0.000e+00
     14.450     9.8530     9.8553    103.899  72.428764     20.553     0.0993      0.877   11.32381   11.31274 8.8416e-02     2.5791     2.9710    47.5798   999.8210  0.000e+00
     14.495     9.8523     9.8546    103.901  72.428765     20.617     0.0952      0.841   11.32400   11.31293 8.8294e-02     2.5346     2.9519    47.8078   999.8213  0.000e+00
     14.540     9.8519     9.8543    104.034  72.520257     20.681     0.0918      0.811   11.32409   11.31301 9.0382e-02     2.5430     2.9522    47.8049   999.8216  0.000e+00
     14.573     9.8511     9.8535    104.167  72.611750     20.728     0.0953      0.842   11.32430   11.31323 9.0755e-02     2.5579     2.9592    47.7205   999.8219  0.000e+00
     14.601     9.8506     9.8529    104.169  72.611750     20.767     0.0962      0.850   11.32444   11.31337 8.9619e-02     2.6003     2.9570    47.7471   999.8220  0.000e+00
     14.619     9.8501     9.8525    104.039  72.520258     20.794     0.0990      0.874   11.32457   11.31350 9.1319e-02     2.5812     2.9446    47.8952   999.8221  0.000e+00
     14.639     9.8496     9.8520    104.040  72.520258     20.822     0.0968      0.855   11.32470   11.31362 9.0175e-02     2.6300     2.9412    47.9367   999.8223  0.000e+00
     14.664     9.8492     9.8515    104.304  72.703244     20.858     0.0952      0.841   11.32481   11.31374 9.3435e-02     2.6130     2.9456    47.8834   999.8225  0.000e+00
     14.697     9.8487     9.8511    104.174  72.611752     20.904     0.0930      0.821   11.32494   11.31387 8.9189e-02     2.5706     2.9620    47.6879   999.8227  0.000e+00
     14.740     9.8482     9.8506    104.176  72.611752     20.965     0.0984      0.869   11.32507   11.31399 8.9804e-02     2.5091     2.9697    47.5961   999.8229  0.000e+00
     14.785     9.8474     9.8498    104.047  72.520260     21.030     0.0929      0.821   11.32529   11.31422 9.0278e-02     2.4879     2.9447    47.8937   999.8231  0.000e+00
     14.837     9.8473     9.8497    104.397  72.764241     21.103     0.0903      0.797   11.32531   11.31423 9.1068e-02     2.4689     2.9302    48.0684   999.8235  0.000e+00
     14.886     9.8468     9.8491    104.399  72.764242     21.173     0.0890      0.786   11.32545   11.31438 9.0382e-02     2.4265     2.9219    48.1676   999.8238  0.000e+00
     14.930     9.8460     9.8484    104.401  72.764242     21.236     0.0902      0.796   11.32565   11.31458 9.1486e-02     2.4964     2.9257    48.1217   999.8241  0.000e+00
     14.972     9.8456     9.8480    104.315  72.703247     21.295     0.0900      0.795   11.32576   11.31469 9.2138e-02     2.5028     2.9197    48.1943   999.8243  0.000e+00
     15.008     9.8454     9.8478    104.534  72.855737     21.347     0.0951      0.840   11.32580   11.31473 9.1005e-02     2.5388     2.9159    48.2402   999.8245  0.000e+00
     15.037     9.8451     9.8475    104.535  72.855737     21.387     0.0961      0.848   11.32588   11.31481 9.1717e-02     2.4901     2.9116    48.2920   999.8247  0.000e+00
     15.065     9.8451     9.8474    104.535  72.855737     21.428     0.0962      0.850   11.32590   11.31482 9.1991e-02     2.4710     2.8945    48.4993   999.8248  0.000e+00
     15.081     9.8450     9.8473    104.536  72.855737     21.450     0.0938      0.828   11.32593   11.31485 9.1172e-02     2.4328     2.9092    48.3216   999.8249  0.000e+00
     15.091     9.8450     9.8474    104.535  72.855737     21.464     0.0998      0.882   11.32591   11.31484 9.0755e-02     2.4455     2.9029    48.3971   999.8249  0.000e+00
     15.091     9.8457     9.8480    104.534  72.855737     21.464     0.0999      0.882   11.32574   11.31467 9.2329e-02     2.5240     2.9026    48.4016   999.8249  0.000e+00
     15.088     9.8458     9.8481    104.402  72.764244     21.461     0.0962      0.849   11.32572   11.31464 9.1235e-02     2.6257     2.9000    48.4327   999.8248  0.000e+00
     15.085     9.8454     9.8478    104.534  72.855737     21.456     0.0975      0.861   11.32580   11.31473 9.2647e-02     2.5833     2.9066    48.3527   999.8249  0.000e+00
     15.090     9.8472     9.8496    104.310  72.703248     21.462     0.0906      0.800   11.32533   11.31425 9.1738e-02     2.5876     2.9173    48.2239   999.8247  0.000e+00
     15.092     9.8514     9.8537    104.385  72.764242     21.466     0.0898      0.793   11.32422   11.31314 8.9742e-02     2.5494     2.9335    48.0285   999.8243  0.000e+00
     15.093     9.8578     9.8602    104.497  72.855734     21.467     0.0858      0.758   11.32250   11.31142 9.2160e-02     2.5452     2.9452    47.8878   999.8238  0.000e+00
     15.098     9.8647     9.8670    104.477  72.855733     21.475     0.0911      0.805   11.32066   11.30958 8.9660e-02     2.5430     2.9717    47.5724   999.8233  0.000e+00
     15.107     9.8714     9.8738    104.456  72.855731     21.487     0.0874      0.772   11.31885   11.30778 8.9127e-02     2.5261     2.9461    47.8774   999.8227  0.000e+00
     15.108     9.8795     9.8819    104.301  72.764236     21.489     0.0873      0.772   11.31669   11.30561 9.2096e-02     2.5515     2.9370    47.9870   999.8220  0.000e+00
     15.114     9.8901     9.8925    104.400  72.855727     21.497     0.0866      0.765   11.31386   11.30279 9.0299e-02     2.5706     2.9523    47.8034   999.8211  0.000e+00
     15.117     9.8926     9.8950    104.174  72.703237     21.501     0.0894      0.790   11.31320   11.30213 9.0985e-02     2.5558     2.9309    48.0596   999.8208  0.000e+00
     15.119     9.8953     9.8977    104.210  72.733734     21.505     0.0889      0.786   11.31247   11.30139 9.1822e-02     2.5346     2.9368    47.9885   999.8206  0.000e+00
     15.125     9.8984     9.9008    104.375  72.855725     21.512     0.0907      0.801   11.31164   11.30056 9.2816e-02     2.5664     2.9471    47.8656   999.8204  0.000e+00
     15.130     9.8982     9.9006    104.158  72.703236     21.520     0.0890      0.787   11.31171   11.30063 8.8862e-02     2.5176     2.9523    47.8034   999.8204  0.000e+00
     15.134     9.8987     9.9011    104.375  72.855725     21.525     0.0896      0.793   11.31156   11.30048 9.1633e-02     2.4985     2.9734    47.5517   999.8204  0.000e+00
