* Sea-Bird SBE19plus Data File:
* FileName = C:\Users\instrument\Desktop\Iola Rosa. CTD Cast. July.23\Jsanuary 2024\Iola Rosa Jan124.24.hex
* Software Version 1.59
* Temperature SN =  4268
* Conductivity SN =  4268
* System UpLoad Time = Feb 01 2024 08:54:22
* ds
* SeacatPlus V 1.6  SERIAL NO. 4268    01 Feb 2024  08:53:08
* vbatt = 12.9, vlith =  8.0, ioper =  61.6 ma, ipump = 124.7 ma,
* iext01 =  38.8 ma
* iext23 =  51.3 ma
*
* status = not logging
* number of scans to average = 1
* samples = 191696, free = 249378, casts = 131
* mode = profile, minimum cond freq = 2567, pump delay = 60 sec
* autorun = no, ignore magnetic switch = no
* battery type = alkaline, battery cutoff =  7.3 volts
* pressure sensor = strain gauge, range = 508.0
* SBE 38 = no, Gas Tension Device = no
* Ext Volt 0 = yes, Ext Volt 1 = yes, Ext Volt 2 = yes, Ext Volt 3 = yes
* echo commands = yes
* output format = raw HEX

* S>
*
* SeacatPlus V 1.6  SERIAL NO. 4268    01 Feb 2024  08:54:03
* temperature:  06-dec-05
*     TA0 = 1.161749e-03
*     TA1 = 2.891779e-04
*     TA2 = -3.393560e-06
*     TA3 = 2.889319e-07
*     TOFFSET = 0.000000e+00
* conductivity:  06-dec-05
*     G = -9.977815e-01
*     H = 1.528486e-01
*     I = -4.694078e-04
*     J = 6.039801e-05
*     CF0 = 2.561972e+03
*     CPCOR = -9.570000e-08
*     CTCOR = 3.250000e-06
*     CSLOPE = 1.000000e+00
* pressure S/N = 1980, range = 508 psia:  22-nov-05
*     PA0 = 1.166340e-01
*     PA1 = 1.562008e-03
*     PA2 = 7.521856e-12
*     PTCA0 = 5.244793e+05
*     PTCA1 = 6.705477e+00
*     PTCA2 = -1.525623e-01
*     PTCB0 = 2.485325e+01
*     PTCB1 = -3.500000e-04
*     PTCB2 = 0.000000e+00
*     PTEMPA0 = -7.187026e+01
*     PTEMPA1 = 4.819360e+01
*     PTEMPA2 = -2.287845e-02
*     POFFSET = 0.000000e+00
* volt 0: offset = -4.716333e-02, slope = 1.249825e+00
* volt 1: offset = -4.705000e-02, slope = 1.250722e+00
* volt 2: offset = -4.720000e-02, slope = 1.250906e+00
* volt 3: offset = 0.000000e+00, slope = 1.000000e+00
*     EXTFREQSF = 1.000004e+00
* dh
* cast 124 25 Jan 2024 13:55:48 samples 176176 to 177049, avg = 1, stop = mag switch

* S>
# nquan = 16
# nvalues = 700                                   
# units = specified
# name 0 = depFM: Depth [fresh water, m]
# name 1 = tv290C: Temperature [ITS-90, deg C]
# name 2 = tv268C: Temperature [IPTS-68, deg C]
# name 3 = specc: Specific Conductance [uS/cm]
# name 4 = c0uS/cm: Conductivity [uS/cm]
# name 5 = prdE: Pressure, Strain Gauge [psi]
# name 6 = sbeox0Mg/L: Oxygen, SBE 43 [mg/l]
# name 7 = sbeox0PS: Oxygen, SBE 43 [% saturation]
# name 8 = oxsolMg/L: Oxygen Saturation, Garcia & Gordon [mg/l]
# name 9 = oxsatMg/L: Oxygen Saturation, Weiss [mg/l]
# name 10 = par: PAR/Irradiance, Biospherical/Licor
# name 11 = flCM: Fluorescence, Chelsea Mini Chl Con [ug/l]
# name 12 = bat: Beam Attenuation, Chelsea/Seatech [1/m]
# name 13 = xmiss: Beam Transmission, Chelsea/Seatech [%]
# name 14 = density00: Density [density, kg/m^3]
# name 15 = flag:  0.000e+00
# span 0 =     -0.604,     15.906                 
# span 1 =     9.7491,    23.9700                 
# span 2 =     9.7514,    23.9758                 
# span 3 =     91.495,    240.118                 
# span 4 =  68.189927, 167.039663                 
# span 5 =     -0.859,     22.624                 
# span 6 =    -0.9533,     9.3450                 
# span 7 =     -9.199,    110.893                 
# span 8 =    8.42032,   11.35171                 
# span 9 =    8.40134,   11.34064                 
# span 10 = 1.0552e-01, 2.7174e+02                
# span 11 =     1.4873,    57.1686                
# span 12 =     1.8115,     4.8819                
# span 13 =    29.5088,    63.5795                
# span 14 =   997.3413,   999.8842                
# span 15 = 0.0000e+00, 0.0000e+00                
# interval = seconds: 0.25
# start_time = Jan 25 2024 13:55:48 [Instrument's time stamp, header]
# bad_flag = -9.990e-29
# <Sensors count="7" >
#   <sensor Channel="1" >
#     <!-- Count, Temperature -->
#     <TemperatureSensor SensorID="58" >
#       <SerialNumber>4268</SerialNumber>
#       <CalibrationDate>06-Dec-05</CalibrationDate>
#       <A0>1.16174900e-003</A0>
#       <A1>2.89177900e-004</A1>
#       <A2>-3.39356000e-006</A2>
#       <A3>2.88931900e-007</A3>
#       <Slope>1.00000000</Slope>
#       <Offset>0.0000</Offset>
#     </TemperatureSensor>
#   </sensor>
#   <sensor Channel="2" >
#     <!-- Frequency 0, Conductivity -->
#     <ConductivitySensor SensorID="3" >
#       <SerialNumber>4268</SerialNumber>
#       <CalibrationDate>06-Dec-05</CalibrationDate>
#       <UseG_J>1</UseG_J>
#       <!-- Cell const and series R are applicable only for wide range sensors. -->
#       <SeriesR>0.0000</SeriesR>
#       <CellConst>2000.0000</CellConst>
#       <ConductivityType>0</ConductivityType>
#       <Coefficients equation="0" >
#         <A>0.00000000e+000</A>
#         <B>0.00000000e+000</B>
#         <C>0.00000000e+000</C>
#         <D>0.00000000e+000</D>
#         <M>0.0</M>
#         <CPcor>-9.57000000e-008</CPcor>
#       </Coefficients>
#       <Coefficients equation="1" >
#         <G>-9.97781500e-001</G>
#         <H>1.52848600e-001</H>
#         <I>-4.69407800e-004</I>
#         <J>6.03980100e-005</J>
#         <CPcor>-9.57000000e-008</CPcor>
#         <CTcor>3.2500e-006</CTcor>
#         <!-- WBOTC not applicable unless ConductivityType = 1. -->
#         <WBOTC>0.00000000e+000</WBOTC>
#       </Coefficients>
#       <Slope>1.00000000</Slope>
#       <Offset>0.00000</Offset>
#     </ConductivitySensor>
#   </sensor>
#   <sensor Channel="3" >
#     <!-- Count, Pressure, Strain Gauge -->
#     <PressureSensor SensorID="46" >
#       <SerialNumber>4268</SerialNumber>
#       <CalibrationDate>22-Nov-05</CalibrationDate>
#       <PA0>1.16634000e-001</PA0>
#       <PA1>1.56200800e-003</PA1>
#       <PA2>7.52185600e-012</PA2>
#       <PTEMPA0>-7.18702600e+001</PTEMPA0>
#       <PTEMPA1>4.81936000e+001</PTEMPA1>
#       <PTEMPA2>-2.28784500e-002</PTEMPA2>
#       <PTCA0>5.24479300e+005</PTCA0>
#       <PTCA1>6.70547700e+000</PTCA1>
#       <PTCA2>-1.52562300e-001</PTCA2>
#       <PTCB0>2.48532500e+001</PTCB0>
#       <PTCB1>-3.50000000e-004</PTCB1>
#       <PTCB2>0.00000000e+000</PTCB2>
#       <Offset>0.000000</Offset>
#     </PressureSensor>
#   </sensor>
#   <sensor Channel="4" >
#     <!-- A/D voltage 0, Oxygen, SBE 43 -->
#     <OxygenSensor SensorID="38" >
#       <SerialNumber>0268</SerialNumber>
#       <CalibrationDate>29-Feb-20</CalibrationDate>
#       <Use2007Equation>1</Use2007Equation>
#       <CalibrationCoefficients equation="0" >
#         <!-- Coefficients for Owens-Millard equation. -->
#         <Boc>0.0000</Boc>
#         <Soc>3.1260e-001</Soc>
#         <offset>-0.4337</offset>
#         <Pcor>1.35e-004</Pcor>
#         <Tcor>0.0023</Tcor>
#         <Tau>0.0</Tau>
#       </CalibrationCoefficients>
#       <CalibrationCoefficients equation="1" >
#         <!-- Coefficients for Sea-Bird equation - SBE calibration in 2007 and later. -->
#         <Soc>5.4910e-001</Soc>
#         <offset>-0.4386</offset>
#         <A>-3.6337e-003</A>
#         <B> 1.0518e-004</B>
#         <C>-1.0368e-006</C>
#         <D0> 2.5826e+000</D0>
#         <D1> 1.92634e-004</D1>
#         <D2>-4.64803e-002</D2>
#         <E> 3.6000e-002</E>
#         <Tau20> 1.2800</Tau20>
#         <H1>-3.3000e-002</H1>
#         <H2> 5.0000e+003</H2>
#         <H3> 1.4500e+003</H3>
#       </CalibrationCoefficients>
#     </OxygenSensor>
#   </sensor>
#   <sensor Channel="5" >
#     <!-- A/D voltage 1, Transmissometer, Chelsea/Seatech -->
#     <TransChelseaSeatechWetlabCStarSensor SensorID="59" >
#       <SerialNumber>CST-612PR</SerialNumber>
#       <CalibrationDate>6/27/02</CalibrationDate>
#       <M>19.4066</M>
#       <B>-1.1062</B>
#       <PathLength>0.250</PathLength>
#     </TransChelseaSeatechWetlabCStarSensor>
#   </sensor>
#   <sensor Channel="6" >
#     <!-- A/D voltage 2, Fluorometer, Chelsea Minitracka -->
#     <FluoroChelseaMinitrackaSensor SensorID="6" >
#       <SerialNumber>175011</SerialNumber>
#       <CalibrationDate>26-Mar-97</CalibrationDate>
#       <Vacetone>0.013</Vacetone>
#       <Vacetone100>3.612</Vacetone100>
#       <Offset>0.000</Offset>
#     </FluoroChelseaMinitrackaSensor>
#   </sensor>
#   <sensor Channel="7" >
#     <!-- A/D voltage 3, PAR/Irradiance, Biospherical/Licor -->
#     <PAR_BiosphericalLicorChelseaSensor SensorID="42" >
#       <SerialNumber>6404</SerialNumber>
#       <CalibrationDate>29-Nov-05</CalibrationDate>
#       <M>-0.76668700</M>
#       <B>-3.43363000</B>
#       <CalibrationConstant>3.42000000</CalibrationConstant>
#       <Multiplier>1.00000000</Multiplier>
#       <Offset>0.00000000</Offset>
#     </PAR_BiosphericalLicorChelseaSensor>
#   </sensor>
# </Sensors>
# datcnv_date = Jun 04 2024 15:04:08, 7.26.7.129 [datcnv_vars = 15]
# datcnv_in = C:\Users\ir64\OneDrive - The University of Waikato\Documents\Sampling\CTD casts\2024.01 CTD casts\2024.01 HEX files\Iola Rosa Jan124.24.hex C:\Users\ir64\OneDrive - The University of Waikato\Documents\Sampling\CTD Documents\New 4268 & 6165 con files\20200723_SBE19_4268.xmlcon
# datcnv_skipover = 0
# datcnv_ox_hysteresis_correction = yes
# datcnv_ox_tau_correction = yes
# file_type = ascii
*END*
     -0.133    23.5532    23.5588     96.662  93.875509     -0.189     7.0872     83.512    8.48640    8.46767 1.2014e+02     2.9946     2.2758    56.6117   997.4446  0.000e+00
     -0.066    23.6996    23.7053     96.026  93.539655     -0.094     7.0787     83.642    8.46309    8.44428 9.9834e+01     4.0630     2.7424    50.3782   997.4092  0.000e+00
     -0.052    23.7382    23.7439     95.794  93.387004     -0.073     7.0990     83.943    8.45697    8.43813 1.2236e+02     4.1203     2.3844    55.0955   997.3997  0.000e+00
     -0.031    23.7341    23.7398     95.802  93.387006     -0.044     7.1394     84.414    8.45762    8.43879 1.0763e+02     4.2156     2.3113    56.1112   997.4008  0.000e+00
     -0.011    23.7390    23.7447     95.792  93.387004     -0.016     7.1876     84.991    8.45684    8.43800 1.3593e+02     4.3344     2.2307    57.2543   997.3997  0.000e+00
     -0.004    23.7478    23.7535     95.430  93.051200     -0.006     7.2362     85.580    8.45545    8.43660 1.6787e+02     4.2877     2.6095    52.0809   997.3975  0.000e+00
     -0.014    23.7454    23.7511     95.372  92.990146     -0.020     7.2836     86.137    8.45583    8.43699 1.7326e+02     4.3004     2.6893    51.0519   997.3980  0.000e+00
     -0.030    23.7375    23.7432     95.200  92.806987     -0.042     7.3320     86.697    8.45710    8.43826 1.6520e+02     4.3471     2.4466    54.2456   997.3998  0.000e+00
     -0.037    23.6933    23.6990     95.286  92.807000     -0.053     7.3728     87.106    8.46410    8.44529 1.6257e+02     4.3153     2.1986    57.7147   997.4106  0.000e+00
     -0.025    23.6630    23.6687     95.597  93.051225     -0.036     7.4001     87.380    8.46892    8.45012 1.2256e+02     4.3344     2.1554    58.3425   997.4181  0.000e+00
      0.014    23.6736    23.6793     95.921  93.387024      0.020     7.4091     87.504    8.46722    8.44842 1.0177e+02     4.4531     2.1471    58.4625   997.4158  0.000e+00
      0.064    23.7046    23.7103     96.016  93.539655      0.091     7.4090     87.553    8.46230    8.44348 1.0476e+02     4.5294     2.1253    58.7823   997.4085  0.000e+00
      0.090    23.7330    23.7387     95.710  93.295424      0.128     7.4123     87.639    8.45780    8.43896 9.1300e+01     4.6396     2.1114    58.9866   997.4016  0.000e+00
      0.078    23.7493    23.7550     95.615  93.234364      0.111     7.4337     87.919    8.45520    8.43635 1.0454e+02     4.8029     2.1178    58.8933   997.3975  0.000e+00
      0.058    23.7698    23.7755     95.825  93.478579      0.083     7.5437     89.253    8.45195    8.43309 9.4319e+01     4.8559     2.1077    59.0414   997.3925  0.000e+00
      0.043    23.7975    23.8032     95.833  93.539626      0.061     7.6658     90.745    8.44757    8.42869 9.8494e+01     4.7711     2.0943    59.2398   997.3857  0.000e+00
      0.043    23.8168    23.8226     95.889  93.631204      0.061     7.7378     91.631    8.44450    8.42562 8.7470e+01     4.7732     2.0927    59.2635   997.3809  0.000e+00
      0.060    23.8231    23.8288     95.939  93.692259      0.086     7.7389     91.655    8.44351    8.42462 1.0509e+02     4.7435     2.1001    59.1539   997.3795  0.000e+00
      0.080    23.8279    23.8336     95.961  93.722786      0.114     7.6668     90.809    8.44276    8.42386 8.3342e+01     4.7371     2.1106    58.9984   997.3784  0.000e+00
      0.091    23.8321    23.8378     95.859  93.631200      0.130     7.5663     89.625    8.44209    8.42320 1.0608e+02     4.7350     2.1226    58.8222   997.3774  0.000e+00
      0.085    23.8319    23.8376     95.766  93.539616      0.120     7.4366     88.090    8.44212    8.42323 9.8066e+01     4.7880     2.1089    59.0236   997.3774  0.000e+00
      0.071    23.8301    23.8358     95.613  93.386977      0.102     7.2817     86.251    8.44241    8.42352 1.1408e+02     4.8135     2.1094    59.0162   997.3777  0.000e+00
      0.063    23.8358    23.8416     95.696  93.478559      0.089     7.1347     84.519    8.44150    8.42260 1.1468e+02     4.8453     2.1246    58.7926   997.3763  0.000e+00
      0.063    23.8480    23.8537     95.734  93.539611      0.089     7.0093     83.053    8.43959    8.42068 1.0650e+02     4.8283     2.1317    58.6890   997.3734  0.000e+00
      0.069    23.8575    23.8632     95.653  93.478552      0.099     6.9113     81.906    8.43808    8.41917 1.1973e+02     4.8728     2.1329    58.6712   997.3710  0.000e+00
      0.078    23.8564    23.8621     95.468  93.295387      0.111     6.8348     80.998    8.43826    8.41935 1.1252e+02     4.8983     2.1921    57.8095   997.3713  0.000e+00
      0.086    23.8447    23.8504     95.428  93.234335      0.122     6.7647     80.150    8.44010    8.42120 1.2431e+02     4.9746     2.1225    58.8237   997.3741  0.000e+00
      0.079    23.8302    23.8359     95.269  93.051176      0.113     6.6994     79.355    8.44240    8.42351 1.2042e+02     4.9682     2.1265    58.7645   997.3776  0.000e+00
      0.062    23.8243    23.8300     95.531  93.295396      0.088     6.6178     78.379    8.44333    8.42444 1.1978e+02     5.0000     2.1173    58.9007   997.3791  0.000e+00
      0.048    23.8318    23.8375     95.610  93.386977      0.069     6.5313     77.365    8.44214    8.42324 1.3426e+02     5.0318     2.1048    59.0843   997.3772  0.000e+00
      0.058    23.8444    23.8501     95.742  93.539612      0.083     6.4522     76.446    8.44015    8.42125 1.1103e+02     5.1272     2.1119    58.9792   997.3742  0.000e+00
      0.095    23.8482    23.8539     95.734  93.539611      0.134     6.3910     75.727    8.43954    8.42064 1.1063e+02     4.9428     2.1146    58.9407   997.3734  0.000e+00
      0.130    23.8355    23.8412     95.196  92.990120      0.184     6.3862     75.651    8.44157    8.42267 1.1314e+02     4.9110     2.1249    58.7882   997.3765  0.000e+00
      0.142    23.8227    23.8284     95.221  92.990124      0.202     6.4119     75.938    8.44360    8.42471 1.1319e+02     4.8919     2.0981    59.1835   997.3797  0.000e+00
      0.159    23.7952    23.8009     95.338  93.051187      0.227     6.5047     76.998    8.44795    8.42907 1.1587e+02     4.9407     2.1076    59.0429   997.3866  0.000e+00
      0.171    23.7563    23.7620     95.257  92.898564      0.244     6.6412     78.556    8.45410    8.43525 1.1106e+02     4.9682     2.1225    58.8237   997.3961  0.000e+00
      0.175    23.7268    23.7325     95.377  92.959627      0.249     6.7843     80.204    8.45878    8.43995 1.1728e+02     5.0339     2.1060    59.0665   997.4034  0.000e+00
      0.166    23.7195    23.7252     95.486  93.051210      0.236     6.8965     81.520    8.45994    8.44111 1.3131e+02     5.0869     2.1154    58.9289   997.4051  0.000e+00
      0.151    23.7351    23.7408     95.549  93.142787      0.214     6.9701     82.413    8.45746    8.43862 1.2219e+02     5.1081     2.1023    59.1213   997.4013  0.000e+00
      0.146    23.7595    23.7652     95.595  93.234362      0.208     6.9892     82.677    8.45359    8.43473 1.2116e+02     5.0212     2.0985    59.1776   997.3953  0.000e+00
      0.153    23.7869    23.7926     95.698  93.386991      0.217     6.9489     82.242    8.44924    8.43037 1.2329e+02     5.0000     2.1012    59.1376   997.3887  0.000e+00
      0.166    23.8069    23.8126     95.565  93.295402      0.236     6.8720     81.363    8.44608    8.42720 1.1986e+02     5.0021     2.1110    58.9925   997.3838  0.000e+00
      0.174    23.8081    23.8139     95.312  93.051183      0.247     6.7646     80.093    8.44589    8.42701 1.1736e+02     5.0254     2.0932    59.2561   997.3835  0.000e+00
      0.171    23.7991    23.8048     95.017  92.745917      0.244     6.6486     78.706    8.44733    8.42845 1.2898e+02     4.9640     2.1077    59.0414   997.3856  0.000e+00
      0.160    23.8065    23.8122     95.003  92.745914      0.228     6.5375     77.402    8.44615    8.42727 1.1807e+02     4.9513     2.1104    59.0014   997.3837  0.000e+00
      0.155    23.8181    23.8238     95.230  92.990126      0.220     6.4359     76.215    8.44432    8.42543 1.2369e+02     4.9809     2.1079    59.0384   997.3809  0.000e+00
      0.154    23.8249    23.8306     95.467  93.234342      0.219     6.3501     75.210    8.44324    8.42434 1.1896e+02     5.0021     2.1062    59.0636   997.3793  0.000e+00
      0.156    23.8389    23.8446     95.596  93.386976      0.222     6.2777     74.371    8.44102    8.42212 1.2922e+02     4.9979     2.1245    58.7941   997.3759  0.000e+00
      0.162    23.8473    23.8530     95.579  93.386973      0.230     6.2287     73.803    8.43969    8.42078 1.2468e+02     5.0085     2.1066    59.0577   997.3739  0.000e+00
      0.165    23.8419    23.8477     95.434  93.234337      0.234     6.1979     73.431    8.44054    8.42164 1.2851e+02     5.0170     2.0905    59.2960   997.3752  0.000e+00
      0.164    23.8242    23.8299     95.281  93.051178      0.233     6.1736     73.118    8.44335    8.42446 1.1943e+02     5.0382     2.1020    59.1258   997.3795  0.000e+00
      0.160    23.8119    23.8176     95.305  93.051182      0.228     6.1482     72.801    8.44530    8.42641 1.2650e+02     5.0191     2.1227    58.8208   997.3825  0.000e+00
      0.162    23.8125    23.8183     95.491  93.234346      0.230     6.1194     72.460    8.44519    8.42631 1.2854e+02     5.0594     2.0942    59.2413   997.3824  0.000e+00
      0.162    23.8200    23.8257     95.477  93.234343      0.230     6.0926     72.152    8.44402    8.42513 1.3011e+02     5.0784     2.0901    59.3020   997.3806  0.000e+00
      0.163    23.8295    23.8352     95.552  93.325923      0.231     6.0771     71.983    8.44251    8.42362 1.2506e+02     5.0890     2.0951    59.2279   997.3783  0.000e+00
      0.164    23.8384    23.8441     95.597  93.386976      0.233     6.0857     72.096    8.44111    8.42221 1.3819e+02     5.1569     2.1038    59.0991   997.3761  0.000e+00
      0.167    23.8449    23.8506     95.584  93.386974      0.238     6.1111     72.406    8.44007    8.42117 1.2574e+02     5.2374     2.1007    59.1450   997.3745  0.000e+00
      0.165    23.8469    23.8526     95.487  93.295390      0.234     6.1569     72.951    8.43976    8.42086 1.4303e+02     5.2820     2.0872    59.3449   997.3740  0.000e+00
      0.162    23.8416    23.8473     95.434  93.234337      0.230     6.2020     73.478    8.44060    8.42170 1.2414e+02     5.3095     2.0855    59.3701   997.3752  0.000e+00
      0.158    23.8297    23.8355     95.520  93.295395      0.225     6.2342     73.843    8.44247    8.42357 1.2819e+02     5.2565     2.1044    59.0902   997.3782  0.000e+00
      0.156    23.8253    23.8310     95.466  93.234342      0.222     6.2420     73.930    8.44318    8.42429 1.5600e+02     5.1293     2.1041    59.0947   997.3792  0.000e+00
      0.159    23.8314    23.8372     95.517  93.295395      0.227     6.2254     73.742    8.44220    8.42330 1.2839e+02     5.0763     2.0958    59.2176   997.3778  0.000e+00
      0.164    23.8410    23.8468     95.592  93.386975      0.233     6.2007     73.462    8.44068    8.42178 1.4854e+02     5.0551     2.0912    59.2857   997.3754  0.000e+00
      0.168    23.8462    23.8520     95.488  93.295391      0.239     6.1792     73.214    8.43986    8.42096 1.2609e+02     5.0233     2.0863    59.3582   997.3742  0.000e+00
      0.166    23.8361    23.8418     95.445  93.234339      0.236     6.1729     73.126    8.44146    8.42257 1.5469e+02     5.0636     2.1058    59.0695   997.3766  0.000e+00
      0.165    23.8114    23.8171     95.400  93.142764      0.234     6.1697     73.054    8.44538    8.42649 1.5962e+02     4.9958     2.0828    59.4101   997.3827  0.000e+00
      0.162    23.8018    23.8075     95.512  93.234349      0.230     6.1577     72.899    8.44689    8.42802 1.5115e+02     4.9385     2.0812    59.4337   997.3850  0.000e+00
      0.163    23.8064    23.8122     95.503  93.234348      0.231     6.1395     72.690    8.44616    8.42728 1.3119e+02     4.9640     2.0729    59.5581   997.3839  0.000e+00
      0.159    23.8167    23.8225     95.483  93.234344      0.227     6.1102     72.357    8.44453    8.42564 2.5282e+02     4.9385     2.0734    59.5507   997.3813  0.000e+00
      0.170    23.8279    23.8336     95.461  93.234341      0.242     6.0704     71.901    8.44277    8.42387 1.3797e+02     4.9152     2.0734    59.5507   997.3787  0.000e+00
      0.184    23.8382    23.8439     95.597  93.386976      0.261     6.0434     71.594    8.44113    8.42223 1.3915e+02     5.0191     2.0794    59.4604   997.3762  0.000e+00
      0.201    23.8452    23.8509     95.334  93.142754      0.286     6.0308     71.455    8.44003    8.42113 1.3191e+02     5.0806     2.0933    59.2546   997.3745  0.000e+00
      0.205    23.8378    23.8435     95.004  92.806959      0.292     6.0319     71.457    8.44120    8.42230 1.5874e+02     5.0784     2.0810    59.4367   997.3762  0.000e+00
      0.198    23.8280    23.8337     94.961  92.745908      0.281     6.0543     71.710    8.44276    8.42387 2.0415e+02     5.1039     2.0810    59.4367   997.3786  0.000e+00
      0.180    23.7994    23.8051     95.079  92.806970      0.256     6.0691     71.847    8.44729    8.42841 1.8339e+02     5.1336     2.0919    59.2753   997.3856  0.000e+00
      0.167    23.7457    23.7514     95.184  92.806986      0.238     6.0710     71.797    8.45579    8.43695 1.3988e+02     5.0254     2.1073    59.0473   997.3987  0.000e+00
      0.156    23.7203    23.7260     95.422  92.990155      0.222     6.0574     71.602    8.45982    8.44099 1.3050e+02     4.9534     2.1382    58.5927   997.4049  0.000e+00
      0.155    23.7190    23.7247     95.487  93.051210      0.220     6.0379     71.370    8.46001    8.44118 1.7031e+02     4.9152     2.1311    58.6979   997.4052  0.000e+00
      0.154    23.7349    23.7406     95.456  93.051205      0.219     6.0291     71.287    8.45750    8.43866 1.4448e+02     4.8643     2.1747    58.0612   997.4013  0.000e+00
      0.159    23.7392    23.7449     95.134  92.745934      0.227     6.0194     71.179    8.45682    8.43797 1.4627e+02     4.8325     2.1536    58.3677   997.4002  0.000e+00
      0.160    23.7212    23.7269     95.075  92.654360      0.228     6.0220     71.184    8.45968    8.44085 1.3671e+02     4.8156     2.0927    59.2635   997.4046  0.000e+00
      0.163    23.7180    23.7237     95.081  92.654361      0.231     6.0087     71.023    8.46019    8.44136 1.5104e+02     4.8559     2.1058    59.0695   997.4054  0.000e+00
      0.162    23.6979    23.7036     95.027  92.562787      0.230     5.9915     70.793    8.46338    8.44457 1.3800e+02     4.8792     2.0954    59.2235   997.4102  0.000e+00
      0.160    23.6531    23.6588     95.208  92.654380      0.228     5.9676     70.451    8.47050    8.45171 1.6403e+02     4.9110     2.0859    59.3642   997.4212  0.000e+00
      0.156    23.6280    23.6337     95.257  92.654388      0.222     5.9376     70.064    8.47450    8.45572 1.3587e+02     4.9873     2.0945    59.2368   997.4273  0.000e+00
      0.154    23.6120    23.6177     95.383  92.745973      0.219     5.9068     69.680    8.47703    8.45827 1.6164e+02     5.0615     2.0762    59.5093   997.4312  0.000e+00
      0.155    23.6062    23.6118     95.457  92.807028      0.220     5.8686     69.222    8.47797    8.45921 1.9107e+02     5.0445     2.0896    59.3094   997.4327  0.000e+00
      0.159    23.6119    23.6175     95.289  92.654393      0.227     5.8396     68.888    8.47706    8.45830 1.3918e+02     5.0700     2.0733    59.5522   997.4312  0.000e+00
      0.160    23.6127    23.6183     95.287  92.654393      0.228     5.8272     68.741    8.47694    8.45817 1.6354e+02     5.0064     2.0752    59.5241   997.4311  0.000e+00
      0.160    23.6039    23.6096     95.210  92.562816      0.228     5.8225     68.675    8.47833    8.45957 1.7797e+02     4.9640     2.0835    59.3997   997.4331  0.000e+00
      0.158    23.5957    23.6013     95.227  92.562818      0.225     5.8199     68.634    8.47965    8.46089 1.3513e+02     4.9640     2.0887    59.3227   997.4351  0.000e+00
      0.158    23.5963    23.6020     95.414  92.745978      0.225     5.8151     68.578    8.47954    8.46079 1.4966e+02     5.0042     2.0939    59.2457   997.4351  0.000e+00
      0.156    23.6107    23.6164     95.386  92.745973      0.222     5.8110     68.549    8.47725    8.45848 1.2702e+02     4.9682     2.0944    59.2383   997.4315  0.000e+00
      0.155    23.6368    23.6425     95.397  92.807019      0.220     5.8065     68.529    8.47309    8.45431 1.5522e+02     4.9576     2.0712    59.5833   997.4252  0.000e+00
      0.156    23.6690    23.6747     95.334  92.807009      0.222     5.8043     68.544    8.46797    8.44917 1.3969e+02     4.8940     2.0665    59.6529   997.4174  0.000e+00
      0.157    23.6987    23.7044     95.370  92.898581      0.224     5.8048     68.589    8.46325    8.44443 1.5052e+02     4.8559     2.0751    59.5255   997.4101  0.000e+00
      0.157    23.7203    23.7260     95.328  92.898574      0.224     5.8038     68.605    8.45982    8.44099 1.3826e+02     4.9004     2.0757    59.5167   997.4049  0.000e+00
      0.159    23.7359    23.7416     95.203  92.806989      0.227     5.8010     68.592    8.45734    8.43850 1.3083e+02     4.9364     2.0929    59.2605   997.4010  0.000e+00
      0.159    23.7474    23.7531     95.181  92.806986      0.227     5.7982     68.573    8.45552    8.43668 1.3759e+02     4.9597     2.0914    59.2827   997.3982  0.000e+00
      0.158    23.7548    23.7605     95.166  92.806983      0.225     5.7883     68.466    8.45435    8.43550 1.2978e+02     5.0466     2.0978    59.1880   997.3964  0.000e+00
      0.160    23.7574    23.7631     95.255  92.898563      0.228     5.7658     68.203    8.45393    8.43508 1.4385e+02     5.0869     2.0855    59.3701   997.3958  0.000e+00
      0.159    23.7557    23.7614     95.102  92.745929      0.227     5.7354     67.841    8.45421    8.43536 1.3301e+02     5.0360     2.0774    59.4900   997.3961  0.000e+00
      0.159    23.7528    23.7585     95.170  92.806984      0.227     5.7041     67.466    8.45466    8.43581 1.2869e+02     5.0424     2.0850    59.3775   997.3969  0.000e+00
      0.157    23.7503    23.7560     95.112  92.745931      0.224     5.6635     66.984    8.45506    8.43621 1.2766e+02     5.0954     2.0922    59.2709   997.3974  0.000e+00
      0.158    23.7474    23.7531     95.118  92.745932      0.225     5.6209     66.476    8.45552    8.43668 1.3797e+02     5.1102     2.0938    59.2472   997.3982  0.000e+00
      0.160    23.7438    23.7495     95.031  92.654353      0.228     5.5815     66.005    8.45609    8.43725 1.2580e+02     5.1357     2.1200    58.8607   997.3990  0.000e+00
      0.159    23.7398    23.7455     95.039  92.654354      0.227     5.5423     65.537    8.45673    8.43789 1.3553e+02     5.0806     2.0887    59.3227   997.4000  0.000e+00
      0.155    23.7346    23.7403     95.143  92.745936      0.220     5.5086     65.133    8.45755    8.43871 1.4133e+02     5.0106     2.0799    59.4530   997.4013  0.000e+00
      0.158    23.7298    23.7355     94.964  92.562778      0.225     5.4787     64.773    8.45832    8.43949 1.3829e+02     5.0064     2.0697    59.6055   997.4024  0.000e+00
      0.158    23.7253    23.7310     94.973  92.562779      0.225     5.4480     64.405    8.45903    8.44020 1.6227e+02     4.9746     2.0854    59.3716   997.4035  0.000e+00
      0.156    23.7209    23.7266     95.076  92.654360      0.222     5.4242     64.118    8.45972    8.44089 1.3902e+02     4.9322     2.0838    59.3952   997.4046  0.000e+00
      0.157    23.7152    23.7209     95.024  92.593309      0.224     5.4020     63.849    8.46063    8.44181 1.5271e+02     4.9152     2.0983    59.1806   997.4060  0.000e+00
      0.157    23.7082    23.7139     95.006  92.562784      0.224     5.3809     63.591    8.46174    8.44292 1.4247e+02     4.9237     2.1053    59.0769   997.4077  0.000e+00
      0.155    23.7012    23.7069     95.114  92.654366      0.220     5.3622     63.362    8.46286    8.44404 1.3522e+02     4.9216     2.0878    59.3360   997.4094  0.000e+00
      0.158    23.6957    23.7014     95.031  92.562788      0.225     5.3334     63.015    8.46372    8.44491 1.6845e+02     4.9385     2.1074    59.0458   997.4107  0.000e+00
      0.157    23.6924    23.6980     95.037  92.562789      0.224     5.3212     62.867    8.46426    8.44545 1.3829e+02     5.0318     2.0947    59.2339   997.4116  0.000e+00
      0.159    23.6896    23.6953     95.043  92.562790      0.227     5.3059     62.683    8.46470    8.44589 1.8458e+02     5.0276     2.0820    59.4219   997.4123  0.000e+00
      0.160    23.6861    23.6918     94.956  92.471212      0.228     5.2951     62.551    8.46526    8.44645 1.5292e+02     5.0678     2.0990    59.1702   997.4131  0.000e+00
      0.158    23.6811    23.6868     94.903  92.410161      0.225     5.2816     62.385    8.46605    8.44725 1.2854e+02     5.1145     2.0811    59.4352   997.4143  0.000e+00
      0.155    23.6758    23.6814     94.976  92.471215      0.220     5.2684     62.223    8.46690    8.44810 1.3349e+02     5.1230     2.0873    59.3434   997.4156  0.000e+00
      0.157    23.6707    23.6764     94.986  92.471216      0.224     5.2542     62.050    8.46771    8.44891 1.4352e+02     5.0869     2.0992    59.1672   997.4168  0.000e+00
      0.158    23.6667    23.6723     94.931  92.410165      0.225     5.2438     61.923    8.46835    8.44955 1.2734e+02     5.0424     2.0858    59.3656   997.4178  0.000e+00
      0.158    23.6632    23.6689     94.938  92.410166      0.225     5.2350     61.815    8.46890    8.45011 1.3398e+02     5.0912     2.1062    59.0636   997.4186  0.000e+00
      0.156    23.6598    23.6655     94.944  92.410167      0.222     5.2219     61.656    8.46944    8.45065 1.9573e+02     5.0869     2.0884    59.3271   997.4195  0.000e+00
      0.155    23.6564    23.6621     94.951  92.410168      0.220     5.2097     61.508    8.46998    8.45119 1.7055e+02     5.0085     2.1014    59.1347   997.4203  0.000e+00
      0.157    23.6523    23.6580     94.959  92.410169      0.224     5.2006     61.396    8.47063    8.45184 1.3674e+02     5.0000     2.1071    59.0503   997.4213  0.000e+00
      0.162    23.6495    23.6552     94.870  92.318592      0.230     5.1892     61.258    8.47107    8.45229 1.5529e+02     4.9619     2.1015    59.1332   997.4220  0.000e+00
      0.158    23.6470    23.6526     94.969  92.410171      0.225     5.1801     61.148    8.47148    8.45270 1.9164e+02     4.9831     2.1008    59.1435   997.4226  0.000e+00
      0.156    23.6443    23.6500     94.880  92.318593      0.222     5.1698     61.023    8.47191    8.45313 1.4534e+02     4.9597     2.1006    59.1465   997.4232  0.000e+00
      0.157    23.6409    23.6466     94.887  92.318594      0.224     5.1606     60.911    8.47245    8.45367 1.5936e+02     4.9809     2.0939    59.2457   997.4240  0.000e+00
      0.156    23.6365    23.6422     94.801  92.227018      0.222     5.1499     60.780    8.47315    8.45437 1.4172e+02     5.0509     2.0958    59.2176   997.4251  0.000e+00
      0.156    23.6309    23.6366     94.907  92.318597      0.222     5.1389     60.643    8.47404    8.45526 1.3152e+02     5.0700     2.0938    59.2472   997.4265  0.000e+00
      0.157    23.6257    23.6313     94.823  92.227021      0.224     5.1273     60.500    8.47488    8.45610 1.5852e+02     5.1060     2.0939    59.2457   997.4277  0.000e+00
      0.158    23.6210    23.6267     94.926  92.318600      0.225     5.1136     60.333    8.47561    8.45684 1.3035e+02     5.1251     2.1045    59.0888   997.4289  0.000e+00
      0.157    23.6172    23.6229     94.839  92.227023      0.224     5.1019     60.190    8.47622    8.45745 1.3267e+02     5.0678     2.1115    58.9851   997.4298  0.000e+00
      0.158    23.6134    23.6190     94.847  92.227025      0.225     5.0866     60.006    8.47683    8.45807 1.4514e+02     5.0276     2.1085    59.0295   997.4307  0.000e+00
      0.157    23.6089    23.6146     94.949  92.318604      0.224     5.0751     59.865    8.47754    8.45878 1.3864e+02     4.9958     2.1004    59.1495   997.4318  0.000e+00
      0.156    23.6039    23.6096     94.802  92.165976      0.222     5.0644     59.733    8.47834    8.45958 1.6054e+02     5.0360     2.1005    59.1480   997.4330  0.000e+00
      0.158    23.5993    23.6050     94.874  92.227029      0.225     5.0523     59.585    8.47907    8.46032 1.4779e+02     5.0700     2.0914    59.2827   997.4341  0.000e+00
      0.156    23.5961    23.6018     94.880  92.227030      0.222     5.0401     59.438    8.47958    8.46083 1.3457e+02     4.9979     2.1022    59.1228   997.4349  0.000e+00
      0.157    23.5932    23.5988     94.886  92.227031      0.224     5.0273     59.284    8.48005    8.46130 1.4326e+02     4.9682     2.0951    59.2279   997.4356  0.000e+00
      0.158    23.5908    23.5964     94.891  92.227031      0.225     5.0223     59.222    8.48043    8.46168 1.9953e+02     4.9619     2.1062    59.0636   997.4362  0.000e+00
      0.157    23.5885    23.5941     94.832  92.165980      0.224     5.0115     59.092    8.48080    8.46205 1.5004e+02     5.0339     2.1111    58.9910   997.4368  0.000e+00
      0.158    23.5852    23.5908     94.902  92.227033      0.225     5.0063     59.028    8.48133    8.46258 1.5461e+02     4.9936     2.1054    59.0754   997.4376  0.000e+00
      0.155    23.5812    23.5868     94.847  92.165982      0.220     4.9964     58.906    8.48197    8.46322 1.3775e+02     4.9831     2.0933    59.2546   997.4385  0.000e+00
      0.154    23.5762    23.5819     94.919  92.227036      0.219     4.9876     58.797    8.48276    8.46402 1.4471e+02     4.9809     2.0928    59.2620   997.4398  0.000e+00
      0.155    23.5714    23.5771     94.929  92.227037      0.220     4.9798     58.699    8.48353    8.46478 1.3915e+02     4.9767     2.0811    59.4352   997.4409  0.000e+00
      0.155    23.5670    23.5726     94.874  92.165987      0.220     4.9662     58.534    8.48424    8.46550 1.5087e+02     5.0466     2.0857    59.3671   997.4420  0.000e+00
      0.157    23.5629    23.5685     94.820  92.104936      0.224     4.9533     58.378    8.48489    8.46615 1.4929e+02     5.1548     2.1342    58.6520   997.4430  0.000e+00
      0.155    23.5590    23.5646     94.890  92.165989      0.220     4.9391     58.206    8.48551    8.46678 1.4052e+02     5.1654     2.0946    59.2353   997.4439  0.000e+00
      0.155    23.5553    23.5610     94.960  92.227042      0.220     4.9281     58.072    8.48609    8.46736 1.3581e+02     5.1442     2.0937    59.2487   997.4448  0.000e+00
      0.156    23.5517    23.5573     94.904  92.165991      0.222     4.9138     57.900    8.48667    8.46795 1.3140e+02     5.1187     2.0928    59.2620   997.4457  0.000e+00
      0.156    23.5477    23.5533     94.912  92.165992      0.222     4.9056     57.799    8.48731    8.46859 1.5129e+02     5.1039     2.0901    59.3020   997.4467  0.000e+00
      0.160    23.5444    23.5500     94.824  92.074416      0.228     4.8958     57.680    8.48784    8.46912 1.4658e+02     5.1908     2.0900    59.3034   997.4475  0.000e+00
      0.158    23.5415    23.5471     94.830  92.074417      0.225     4.8860     57.562    8.48831    8.46959 1.2946e+02     5.1548     2.1018    59.1287   997.4482  0.000e+00
      0.155    23.5383    23.5439     94.931  92.165995      0.220     4.8796     57.483    8.48882    8.47010 1.3959e+02     5.1929     2.0927    59.2635   997.4490  0.000e+00
      0.158    23.5347    23.5404     94.843  92.074419      0.225     4.8694     57.359    8.48939    8.47067 1.6818e+02     5.2353     2.0873    59.3434   997.4498  0.000e+00
      0.158    23.5317    23.5373     94.849  92.074420      0.225     4.8550     57.185    8.48987    8.47115 1.5070e+02     5.2396     2.0932    59.2561   997.4505  0.000e+00
      0.159    23.5287    23.5343     94.855  92.074421      0.227     4.8507     57.132    8.49035    8.47163 1.4136e+02     5.1802     2.0908    59.2916   997.4513  0.000e+00
      0.165    23.5257    23.5314     94.861  92.074422      0.234     4.8395     56.996    8.49082    8.47210 1.5073e+02     5.1929     2.1137    58.9525   997.4520  0.000e+00
      0.162    23.5227    23.5284     94.867  92.074423      0.230     4.8332     56.919    8.49130    8.47259 1.3457e+02     5.1675     2.1109    58.9940   997.4527  0.000e+00
      0.162    23.5193    23.5249     94.873  92.074424      0.230     4.8220     56.783    8.49185    8.47314 1.4551e+02     5.1272     2.1130    58.9629   997.4536  0.000e+00
      0.160    23.5162    23.5219     94.879  92.074424      0.228     4.8119     56.662    8.49233    8.47363 1.7891e+02     5.0975     2.0923    59.2694   997.4543  0.000e+00
      0.159    23.5146    23.5203     94.882  92.074425      0.227     4.8027     56.552    8.49259    8.47388 1.5704e+02     5.1548     2.1028    59.1139   997.4547  0.000e+00
      0.159    23.5146    23.5203     94.977  92.166002      0.227     4.7923     56.429    8.49259    8.47388 1.6336e+02     5.2523     2.0938    59.2472   997.4547  0.000e+00
      0.158    23.5148    23.5205     94.788  91.982848      0.225     4.7742     56.217    8.49256    8.47386 2.0537e+02     5.2374     2.0856    59.3686   997.4546  0.000e+00
      0.163    23.5138    23.5194     94.884  92.074425      0.231     4.7609     56.059    8.49273    8.47403 1.3356e+02     5.2353     2.0835    59.3997   997.4549  0.000e+00
      0.164    23.5112    23.5168     94.921  92.104952      0.233     4.7513     55.943    8.49314    8.47444 1.5575e+02     5.2523     2.0956    59.2205   997.4555  0.000e+00
      0.163    23.5082    23.5138     94.895  92.074427      0.231     4.7370     55.772    8.49362    8.47492 1.4481e+02     5.2480     2.0908    59.2916   997.4563  0.000e+00
      0.158    23.5065    23.5121     94.898  92.074427      0.225     4.7235     55.610    8.49389    8.47519 1.7826e+02     5.1802     2.0991    59.1687   997.4566  0.000e+00
      0.157    23.5067    23.5123     94.898  92.074427      0.224     4.7159     55.521    8.49387    8.47516 1.5640e+02     5.2035     2.0815    59.4293   997.4566  0.000e+00
      0.158    23.5075    23.5131     94.896  92.074427      0.225     4.7011     55.348    8.49374    8.47504 1.6977e+02     5.2056     2.0827    59.4115   997.4564  0.000e+00
      0.159    23.5070    23.5127     94.897  92.074427      0.227     4.6908     55.226    8.49381    8.47511 1.5310e+02     5.0933     2.0943    59.2398   997.4565  0.000e+00
      0.160    23.5052    23.5108     94.901  92.074428      0.228     4.6759     55.048    8.49411    8.47541 1.5454e+02     5.1208     2.0816    59.4278   997.4570  0.000e+00
      0.162    23.5018    23.5074     94.908  92.074429      0.230     4.6645     54.911    8.49465    8.47595 2.3365e+02     5.1314     2.0941    59.2427   997.4578  0.000e+00
      0.163    23.4986    23.5042     94.914  92.074430      0.231     4.6516     54.756    8.49516    8.47646 1.5317e+02     5.1590     2.0864    59.3568   997.4586  0.000e+00
      0.162    23.4961    23.5017     94.824  91.982854      0.230     4.6394     54.610    8.49556    8.47686 1.4864e+02     5.1972     2.0869    59.3493   997.4591  0.000e+00
      0.163    23.4945    23.5002     94.922  92.074431      0.231     4.6295     54.491    8.49581    8.47711 1.6437e+02     5.1823     2.0815    59.4293   997.4596  0.000e+00
      0.162    23.4926    23.4982     94.926  92.074432      0.230     4.6192     54.368    8.49612    8.47743 1.5142e+02     5.2544     2.0799    59.4530   997.4600  0.000e+00
      0.162    23.4898    23.4955     94.931  92.074432      0.230     4.6083     54.238    8.49656    8.47787 1.7522e+02     5.2841     2.0842    59.3893   997.4607  0.000e+00
      0.162    23.4870    23.4926     94.842  91.982856      0.230     4.6010     54.149    8.49702    8.47833 1.6516e+02     5.3413     2.0917    59.2783   997.4614  0.000e+00
      0.165    23.4842    23.4899     94.942  92.074434      0.234     4.5863     53.973    8.49745    8.47877 1.3659e+02     5.4303     2.0925    59.2664   997.4621  0.000e+00
      0.159    23.4811    23.4868     94.948  92.074435      0.227     4.5805     53.901    8.49795    8.47926 1.8369e+02     5.4876     2.0858    59.3656   997.4628  0.000e+00
      0.156    23.4782    23.4838     94.954  92.074436      0.222     4.5668     53.738    8.49842    8.47973 1.4912e+02     5.5342     2.0802    59.4486   997.4635  0.000e+00
      0.159    23.4752    23.4808     94.960  92.074437      0.227     4.5587     53.639    8.49890    8.48022 1.5264e+02     5.5491     2.0847    59.3819   997.4642  0.000e+00
      0.158    23.4723    23.4779     94.871  91.982861      0.225     4.5459     53.485    8.49937    8.48069 1.3759e+02     5.5703     2.0967    59.2042   997.4649  0.000e+00
      0.165    23.4690    23.4746     95.003  92.104964      0.234     4.5361     53.366    8.49989    8.48121 1.4414e+02     5.5915     2.0878    59.3360   997.4658  0.000e+00
      0.167    23.4659    23.4715     94.883  91.982863      0.238     4.5288     53.278    8.50039    8.48171 1.4963e+02     5.5830     2.0876    59.3390   997.4665  0.000e+00
      0.170    23.4632    23.4689     94.889  91.982863      0.242     4.5266     53.249    8.50082    8.48214 1.4973e+02     5.5597     2.0774    59.4900   997.4672  0.000e+00
      0.167    23.4608    23.4665     94.893  91.982864      0.238     4.5284     53.268    8.50120    8.48253 1.3550e+02     5.5024     2.0780    59.4811   997.4677  0.000e+00
      0.168    23.4573    23.4629     94.995  92.074442      0.239     4.5260     53.236    8.50176    8.48309 1.3429e+02     5.4600     2.0900    59.3034   997.4686  0.000e+00
      0.167    23.4537    23.4593     94.907  91.982866      0.238     4.5293     53.271    8.50235    8.48368 1.3892e+02     5.4367     2.0817    59.4263   997.4695  0.000e+00
      0.166    23.4499    23.4556     94.915  91.982867      0.236     4.5274     53.245    8.50294    8.48428 1.4358e+02     5.3689     2.0812    59.4337   997.4703  0.000e+00
      0.170    23.4472    23.4528     94.857  91.921817      0.242     4.5237     53.199    8.50338    8.48472 1.4342e+02     5.4134     2.0770    59.4959   997.4710  0.000e+00
      0.167    23.4447    23.4504     95.019  92.074446      0.238     4.5186     53.137    8.50378    8.48511 1.4604e+02     5.4388     2.0757    59.5167   997.4716  0.000e+00
      0.166    23.4422    23.4478     94.930  91.982870      0.236     4.5120     53.056    8.50419    8.48553 1.3778e+02     5.4282     2.0860    59.3627   997.4722  0.000e+00
      0.166    23.4392    23.4449     94.936  91.982871      0.236     4.5072     52.997    8.50466    8.48600 1.2967e+02     5.4515     2.0847    59.3819   997.4729  0.000e+00
      0.166    23.4366    23.4422     94.941  91.982871      0.236     4.5033     52.949    8.50508    8.48643 1.3014e+02     5.4643     2.0871    59.3464   997.4736  0.000e+00
      0.163    23.4342    23.4398     95.040  92.074449      0.231     4.5033     52.945    8.50547    8.48681 1.3429e+02     5.4961     2.0930    59.2590   997.4742  0.000e+00
      0.166    23.4325    23.4381     95.043  92.074450      0.236     4.5023     52.933    8.50573    8.48708 1.7047e+02     5.5173     2.0993    59.1658   997.4746  0.000e+00
      0.168    23.4322    23.4379     95.044  92.074450      0.239     4.5002     52.908    8.50578    8.48712 1.3562e+02     5.5575     2.1118    58.9807   997.4747  0.000e+00
      0.166    23.4328    23.4384     95.043  92.074449      0.236     4.5043     52.957    8.50569    8.48704 1.4052e+02     5.4558     2.1060    59.0665   997.4745  0.000e+00
      0.163    23.4317    23.4373     95.045  92.074450      0.231     4.5128     53.055    8.50586    8.48721 1.3065e+02     5.3901     2.0967    59.2042   997.4748  0.000e+00
      0.157    23.4281    23.4337     94.957  91.982874      0.224     4.5189     53.123    8.50645    8.48779 1.4299e+02     5.3328     2.0865    59.3553   997.4756  0.000e+00
      0.153    23.4257    23.4313     94.962  91.982874      0.217     4.5216     53.152    8.50683    8.48818 1.3365e+02     5.2714     2.0890    59.3183   997.4762  0.000e+00
      0.154    23.4238    23.4295     94.997  92.013401      0.219     4.5220     53.156    8.50713    8.48848 1.4444e+02     5.2565     2.0924    59.2679   997.4766  0.000e+00
      0.156    23.4229    23.4285     94.968  91.982875      0.222     4.5182     53.109    8.50728    8.48863 1.4169e+02     5.2268     2.1018    59.1287   997.4769  0.000e+00
      0.160    23.4221    23.4277     94.969  91.982876      0.228     4.5118     53.034    8.50741    8.48876 1.3609e+02     5.2523     2.1009    59.1421   997.4771  0.000e+00
      0.163    23.4222    23.4278     95.064  92.074453      0.231     4.5105     53.018    8.50739    8.48874 1.4454e+02     5.2608     2.0988    59.1732   997.4771  0.000e+00
      0.164    23.4219    23.4275     94.970  91.982876      0.233     4.5091     53.002    8.50744    8.48879 1.3851e+02     5.2396     2.0853    59.3730   997.4771  0.000e+00
      0.164    23.4205    23.4261     95.067  92.074453      0.233     4.5101     53.012    8.50766    8.48902 1.2922e+02     5.2692     2.1009    59.1421   997.4775  0.000e+00
      0.166    23.4186    23.4242     94.976  91.982877      0.236     4.5150     53.068    8.50796    8.48932 1.3086e+02     5.3053     2.0996    59.1613   997.4779  0.000e+00
      0.171    23.4169    23.4225     94.980  91.982877      0.244     4.5216     53.144    8.50825    8.48960 1.2828e+02     5.3201     2.1075    59.0443   997.4784  0.000e+00
      0.169    23.4142    23.4198     94.985  91.982878      0.241     4.5292     53.231    8.50867    8.49003 1.3328e+02     5.3540     2.0996    59.1613   997.4790  0.000e+00
      0.169    23.4099    23.4155     94.993  91.982879      0.241     4.5359     53.304    8.50937    8.49073 1.5101e+02     5.4049     2.1067    59.0562   997.4801  0.000e+00
      0.167    23.4052    23.4108     95.002  91.982881      0.238     4.5351     53.291    8.51012    8.49148 1.2491e+02     5.4070     2.1072    59.0488   997.4812  0.000e+00
      0.167    23.4017    23.4073     95.104  92.074459      0.238     4.5339     53.273    8.51067    8.49203 1.4224e+02     5.3922     2.1035    59.1036   997.4820  0.000e+00
      0.167    23.3986    23.4043     95.015  91.982883      0.238     4.5263     53.181    8.51117    8.49253 1.3038e+02     5.4452     2.1003    59.1509   997.4828  0.000e+00
      0.168    23.3960    23.4016     95.020  91.982884      0.239     4.5225     53.133    8.51159    8.49296 1.1853e+02     5.4727     2.0976    59.1909   997.4834  0.000e+00
      0.165    23.3940    23.3997     95.024  91.982884      0.234     4.5147     53.040    8.51191    8.49327 1.2583e+02     5.4558     2.1085    59.0295   997.4839  0.000e+00
      0.164    23.3932    23.3988     95.026  91.982884      0.233     4.5017     52.886    8.51205    8.49342 1.3460e+02     5.4664     2.1098    59.0103   997.4841  0.000e+00
      0.166    23.3920    23.3976     95.028  91.982885      0.236     4.4888     52.734    8.51223    8.49360 1.2414e+02     5.4388     2.1096    59.0132   997.4843  0.000e+00
      0.165    23.3908    23.3964     95.031  91.982885      0.234     4.4850     52.688    8.51243    8.49380 1.2784e+02     5.5130     2.1135    58.9555   997.4846  0.000e+00
      0.167    23.3890    23.3946     95.034  91.982886      0.238     4.4774     52.597    8.51271    8.49409 1.3107e+02     5.5575     2.1083    59.0325   997.4851  0.000e+00
      0.166    23.3867    23.3923     95.070  92.013412      0.236     4.4715     52.525    8.51308    8.49445 1.3252e+02     5.5427     2.1032    59.1080   997.4856  0.000e+00
      0.165    23.3848    23.3904     95.043  91.982887      0.234     4.4667     52.467    8.51339    8.49477 1.3062e+02     5.4452     2.0899    59.3049   997.4861  0.000e+00
      0.167    23.3832    23.3888     95.046  91.982887      0.238     4.4675     52.475    8.51365    8.49502 1.5747e+02     5.4494     2.0932    59.2561   997.4865  0.000e+00
      0.167    23.3820    23.3876     95.048  91.982888      0.238     4.4667     52.464    8.51383    8.49521 1.2517e+02     5.3837     2.0971    59.1983   997.4868  0.000e+00
      0.165    23.3812    23.3868     95.049  91.982888      0.234     4.4654     52.448    8.51396    8.49534 1.3173e+02     5.3434     2.0907    59.2931   997.4869  0.000e+00
      0.166    23.3806    23.3862     95.145  92.074465      0.236     4.4581     52.361    8.51406    8.49544 1.2993e+02     5.3307     2.1071    59.0503   997.4871  0.000e+00
      0.166    23.3800    23.3856     95.147  92.074465      0.236     4.4534     52.305    8.51416    8.49554 1.2323e+02     5.2989     2.1157    58.9244   997.4873  0.000e+00
      0.166    23.3788    23.3845     95.054  91.982889      0.236     4.4497     52.262    8.51434    8.49572 1.4081e+02     5.2841     2.1023    59.1213   997.4875  0.000e+00
      0.165    23.3777    23.3833     95.056  91.982889      0.234     4.4477     52.237    8.51453    8.49591 1.3896e+02     5.2226     2.1006    59.1465   997.4878  0.000e+00
      0.167    23.3768    23.3824     95.058  91.982889      0.238     4.4415     52.163    8.51467    8.49605 1.3002e+02     5.1569     2.0925    59.2664   997.4880  0.000e+00
      0.167    23.3763    23.3819     95.059  91.982889      0.238     4.4354     52.090    8.51476    8.49614 1.3927e+02     5.1632     2.0902    59.3005   997.4881  0.000e+00
      0.170    23.3755    23.3811     95.061  91.982890      0.242     4.4339     52.072    8.51488    8.49626 1.1796e+02     5.2205     2.0908    59.2916   997.4884  0.000e+00
      0.175    23.3738    23.3794     95.064  91.982890      0.249     4.4276     51.997    8.51515    8.49653 1.2517e+02     5.2523     2.0868    59.3508   997.4888  0.000e+00
      0.176    23.3717    23.3773     95.163  92.074468      0.250     4.4281     52.001    8.51549    8.49687 1.2113e+02     5.2311     2.0897    59.3079   997.4893  0.000e+00
      0.179    23.3694    23.3750     95.073  91.982892      0.255     4.4287     52.006    8.51586    8.49725 1.3696e+02     5.1887     2.0881    59.3316   997.4899  0.000e+00
      0.184    23.3676    23.3732     95.076  91.982892      0.261     4.4295     52.013    8.51615    8.49753 1.1995e+02     5.1929     2.0923    59.2694   997.4903  0.000e+00
      0.184    23.3659    23.3715     95.174  92.074470      0.261     4.4266     51.977    8.51643    8.49781 1.2655e+02     5.2268     2.0898    59.3064   997.4908  0.000e+00
      0.177    23.3759    23.3815     96.953  93.814509      0.252     4.4307     52.035    8.51477    8.49615 1.4153e+02     5.2035     2.0956    59.2205   997.4889  0.000e+00
      0.171    23.5321    23.5378     97.049  94.211334      0.244     4.4786     52.753    8.48975    8.47103 1.2810e+02     5.1569     2.0793    59.4619   997.4512  0.000e+00
      0.169    23.7215    23.7272     96.735  94.272334      0.241     4.8102     56.861    8.45960    8.44077 1.4195e+02     5.0912     2.0983    59.1806   997.4051  0.000e+00
      0.169    23.8314    23.8372     96.361  94.119656      0.241     5.5298     65.502    8.44218    8.42329 1.2641e+02     5.0170     2.0952    59.2265   997.3781  0.000e+00
      0.177    23.8857    23.8915     96.347  94.211226      0.252     6.4304     76.247    8.43360    8.41467 1.3624e+02     4.9979     2.1021    59.1243   997.3648  0.000e+00
      0.182    23.9096    23.9153     96.300  94.211218      0.259     7.3291     86.943    8.42984    8.41090 1.2836e+02     4.9873     2.0902    59.3005   997.3590  0.000e+00
      0.180    23.9178    23.9236     96.284  94.211216      0.256     8.1130     96.256    8.42854    8.40959 1.3083e+02     5.0085     2.0952    59.2265   997.3569  0.000e+00
      0.174    23.9227    23.9284     96.368  94.302801      0.247     8.7321    103.612    8.42777    8.40882 1.2036e+02     4.9767     2.1008    59.1435   997.3557  0.000e+00
      0.169    23.9250    23.9308     96.364  94.302801      0.241     9.1552    108.637    8.42740    8.40845 1.3516e+02     4.8877     2.1006    59.1465   997.3551  0.000e+00
      0.168    23.9270    23.9327     96.360  94.302800      0.239     9.3450    110.893    8.42709    8.40814 1.2122e+02     4.8283     2.0929    59.2605   997.3546  0.000e+00
      0.174    23.9277    23.9335     96.265  94.211213      0.247     9.3273    110.684    8.42698    8.40803 1.3587e+02     4.8453     2.0889    59.3197   997.3544  0.000e+00
      0.176    23.9262    23.9319     96.174  94.119627      0.250     9.1714    108.831    8.42722    8.40827 1.3383e+02     4.8368     2.0864    59.3568   997.3548  0.000e+00
      0.181    23.9234    23.9291     96.367  94.302801      0.258     8.9843    106.605    8.42766    8.40871 1.2397e+02     4.8092     2.0848    59.3804   997.3556  0.000e+00
      0.184    23.9204    23.9262     96.373  94.302802      0.261     8.7851    104.236    8.42813    8.40918 1.2318e+02     4.9067     2.1056    59.0725   997.3563  0.000e+00
      0.185    23.9192    23.9249     96.188  94.119629      0.263     8.6303    102.397    8.42833    8.40938 1.1959e+02     4.9195     2.0858    59.3656   997.3566  0.000e+00
      0.181    23.9189    23.9246     96.282  94.211216      0.258     8.5126    100.999    8.42837    8.40942 1.1627e+02     4.8622     2.0952    59.2265   997.3566  0.000e+00
      0.182    23.9179    23.9237     96.378  94.302803      0.259     8.4255     99.964    8.42852    8.40958 1.1945e+02     4.8813     2.0943    59.2398   997.3569  0.000e+00
      0.181    23.9183    23.9240     96.377  94.302803      0.258     8.3651     99.248    8.42847    8.40952 1.2635e+02     4.9640     2.0774    59.4900   997.3568  0.000e+00
      0.183    23.9190    23.9247     96.282  94.211216      0.261     8.3237     98.758    8.42836    8.40941 1.1450e+02     4.9682     2.0864    59.3568   997.3566  0.000e+00
      0.182    23.9194    23.9251     96.187  94.119629      0.259     8.2915     98.377    8.42830    8.40935 1.2708e+02     4.9407     2.1047    59.0858   997.3565  0.000e+00
      0.182    23.9187    23.9245     96.282  94.211216      0.259     8.2605     98.008    8.42840    8.40945 1.3813e+02     4.9746     2.1030    59.1110   997.3567  0.000e+00
      0.180    23.9177    23.9235     96.191  94.119629      0.256     8.2414     97.780    8.42856    8.40961 1.1755e+02     4.9173     2.1181    58.8889   997.3569  0.000e+00
      0.181    23.9171    23.9228     96.379  94.302803      0.258     8.2151     97.467    8.42865    8.40971 1.2583e+02     4.9152     2.1166    58.9111   997.3571  0.000e+00
      0.182    23.9165    23.9222     96.193  94.119630      0.259     8.1970     97.250    8.42876    8.40981 1.2028e+02     4.8919     2.1090    59.0221   997.3572  0.000e+00
      0.182    23.9160    23.9218     96.288  94.211217      0.259     8.1779     97.023    8.42882    8.40988 1.1693e+02     4.8898     2.1057    59.0710   997.3574  0.000e+00
      0.178    23.9129    23.9186     96.387  94.302804      0.253     8.1656     96.871    8.42932    8.41038 1.1361e+02     4.8580     2.0972    59.1968   997.3581  0.000e+00
      0.175    23.9113    23.9170     96.391  94.302805      0.248     8.1595     96.796    8.42957    8.41063 1.4799e+02     4.8665     2.0968    59.2028   997.3585  0.000e+00
      0.166    23.9119    23.9176     96.296  94.211218      0.236     8.1588     96.789    8.42948    8.41053 1.1476e+02     4.8601     2.0731    59.5552   997.3583  0.000e+00
      0.164    23.9102    23.9159     96.299  94.211218      0.233     8.1600     96.800    8.42975    8.41080 1.6039e+02     4.8559     2.0718    59.5744   997.3587  0.000e+00
      0.162    23.9077    23.9134     96.304  94.211219      0.230     8.1684     96.896    8.43014    8.41120 1.2304e+02     4.8622     2.0783    59.4767   997.3593  0.000e+00
      0.164    23.9059    23.9116     96.308  94.211219      0.233     8.1795     97.023    8.43043    8.41149 1.2714e+02     4.8389     2.0931    59.2576   997.3598  0.000e+00
      0.167    23.9046    23.9103     96.310  94.211220      0.238     8.1787     97.012    8.43062    8.41169 1.1945e+02     4.9152     2.0851    59.3760   997.3601  0.000e+00
      0.171    23.9052    23.9110     96.309  94.211220      0.244     8.1829     97.063    8.43053    8.41159 1.1450e+02     4.9004     2.0948    59.2324   997.3600  0.000e+00
      0.170    23.9081    23.9139     96.147  94.058575      0.242     8.1789     97.021    8.43008    8.41113 1.3158e+02     4.9110     2.0938    59.2472   997.3592  0.000e+00
      0.170    23.9092    23.9149     96.395  94.302805      0.242     8.1896     97.150    8.42990    8.41096 1.1771e+02     4.9364     2.1125    58.9703   997.3590  0.000e+00
      0.165    23.9105    23.9163     96.392  94.302805      0.234     8.1875     97.126    8.42969    8.41075 1.3234e+02     5.0106     2.0977    59.1894   997.3587  0.000e+00
      0.167    23.9115    23.9173     96.296  94.211218      0.238     8.1862     97.113    8.42953    8.41059 1.3243e+02     5.0827     2.0960    59.2146   997.3584  0.000e+00
      0.166    23.9122    23.9180     96.389  94.302805      0.236     8.1944     97.212    8.42942    8.41047 1.4303e+02     5.1717     2.0971    59.1983   997.3582  0.000e+00
      0.166    23.9122    23.9179     96.295  94.211218      0.236     8.1944     97.212    8.42943    8.41049 1.4372e+02     5.1293     2.1013    59.1361   997.3582  0.000e+00
      0.170    23.9107    23.9165     96.298  94.211218      0.242     8.1984     97.257    8.42966    8.41072 1.4661e+02     5.1781     2.1165    58.9126   997.3586  0.000e+00
      0.169    23.9089    23.9147     96.302  94.211219      0.241     8.2019     97.294    8.42994    8.41100 1.3503e+02     5.1993     2.1237    58.8060   997.3590  0.000e+00
      0.165    23.9054    23.9112     96.152  94.058576      0.234     8.2023     97.293    8.43050    8.41156 1.6497e+02     5.1166     2.1159    58.9214   997.3598  0.000e+00
      0.165    23.9009    23.9067     96.411  94.302808      0.234     8.1911     97.152    8.43120    8.41227 1.4793e+02     4.9767     2.1237    58.8060   997.3610  0.000e+00
      0.164    23.8937    23.8995     96.175  94.058579      0.233     8.1922     97.152    8.43234    8.41341 1.6918e+02     4.8983     2.1128    58.9659   997.3627  0.000e+00
      0.163    23.8883    23.8941     96.342  94.211225      0.231     8.1912     97.130    8.43319    8.41426 1.7623e+02     4.8771     2.1151    58.9333   997.3641  0.000e+00
      0.163    23.8855    23.8912     96.254  94.119639      0.231     8.1933     97.151    8.43365    8.41472 1.8060e+02     4.9534     2.1106    58.9984   997.3648  0.000e+00
      0.162    23.8833    23.8890     96.352  94.211226      0.230     8.1942     97.156    8.43398    8.41506 1.3880e+02     4.9385     2.1227    58.8208   997.3653  0.000e+00
      0.164    23.8826    23.8883     96.197  94.058583      0.233     8.1954     97.169    8.43410    8.41518 1.5028e+02     4.9619     2.1158    58.9229   997.3655  0.000e+00
      0.163    23.8804    23.8862     96.264  94.119641      0.231     8.1914     97.118    8.43444    8.41552 1.4891e+02     4.9025     2.1417    58.5424   997.3660  0.000e+00
      0.160    23.8776    23.8833     96.363  94.211228      0.228     8.1906     97.104    8.43489    8.41597 1.5722e+02     4.9004     2.1243    58.7971   997.3667  0.000e+00
      0.162    23.8742    23.8799     96.276  94.119643      0.230     8.1882     97.069    8.43543    8.41651 1.5433e+02     4.8601     2.1060    59.0665   997.3675  0.000e+00
      0.162    23.8717    23.8775     96.375  94.211230      0.230     8.1885     97.069    8.43581    8.41689 1.5174e+02     4.8453     2.1170    58.9052   997.3682  0.000e+00
      0.162    23.8701    23.8758     96.222  94.058586      0.230     8.1836     97.008    8.43607    8.41715 1.4257e+02     4.8580     2.1181    58.8889   997.3685  0.000e+00
      0.163    23.8658    23.8715     96.387  94.211232      0.231     8.1827     96.989    8.43675    8.41783 1.7769e+02     4.8665     2.1098    59.0103   997.3696  0.000e+00
      0.163    23.8602    23.8660     96.241  94.058589      0.231     8.1762     96.901    8.43763    8.41872 1.7675e+02     4.8665     2.1072    59.0488   997.3710  0.000e+00
      0.162    23.8573    23.8630     96.247  94.058590      0.230     8.1870     97.024    8.43810    8.41919 1.4326e+02     4.8686     2.1115    58.9851   997.3717  0.000e+00
      0.159    23.8558    23.8616     96.313  94.119648      0.227     8.1793     96.931    8.43832    8.41942 1.7247e+02     4.9004     2.1102    59.0044   997.3720  0.000e+00
      0.163    23.8545    23.8602     96.253  94.058591      0.231     8.1796     96.931    8.43854    8.41963 1.5944e+02     5.0042     2.1132    58.9599   997.3724  0.000e+00
      0.159    23.8548    23.8605     96.502  94.302822      0.227     8.1680     96.795    8.43849    8.41958 1.3261e+02     5.0551     2.1189    58.8770   997.3724  0.000e+00
      0.160    23.8549    23.8606     96.314  94.119648      0.228     8.1648     96.756    8.43848    8.41957 1.4772e+02     5.1166     2.1326    58.6757   997.3723  0.000e+00
      0.160    23.8573    23.8630     96.310  94.119648      0.228     8.1535     96.627    8.43810    8.41919 1.5461e+02     5.1314     2.1224    58.8252   997.3717  0.000e+00
      0.164    23.8596    23.8653     96.399  94.211234      0.233     8.1521     96.614    8.43773    8.41882 1.3513e+02     5.1145     2.1274    58.7512   997.3712  0.000e+00
      0.163    23.8604    23.8661     96.304  94.119647      0.231     8.1588     96.696    8.43760    8.41869 1.5129e+02     5.1272     2.1179    58.8918   997.3709  0.000e+00
      0.160    23.8614    23.8671     96.302  94.119646      0.228     8.1580     96.688    8.43745    8.41853 1.3029e+02     5.1251     2.1164    58.9140   997.3707  0.000e+00
      0.162    23.8603    23.8661     96.304  94.119647      0.230     8.1633     96.749    8.43762    8.41870 1.4362e+02     5.1399     2.1126    58.9688   997.3709  0.000e+00
      0.160    23.8580    23.8637     96.308  94.119647      0.228     8.1663     96.781    8.43798    8.41907 1.5035e+02     5.2141     2.1104    59.0014   997.3715  0.000e+00
      0.159    23.8557    23.8614     96.157  93.967005      0.227     8.1580     96.677    8.43836    8.41945 1.4069e+02     5.2141     2.1054    59.0754   997.3720  0.000e+00
      0.162    23.8526    23.8583     96.319  94.119649      0.230     8.1496     96.573    8.43884    8.41993 1.3441e+02     5.2502     2.1068    59.0547   997.3728  0.000e+00
      0.160    23.8488    23.8546     96.420  94.211237      0.228     8.1536     96.614    8.43943    8.42052 1.3095e+02     5.3159     2.1161    58.9185   997.3738  0.000e+00
      0.162    23.8458    23.8515     96.270  94.058594      0.230     8.1542     96.615    8.43991    8.42101 1.4146e+02     5.3265     2.1185    58.8830   997.3745  0.000e+00
      0.160    23.8429    23.8486     96.276  94.058595      0.228     8.1624     96.707    8.44037    8.42147 1.5125e+02     5.3392     2.1124    58.9718   997.3752  0.000e+00
      0.160    23.8410    23.8467     96.342  94.119653      0.228     8.1673     96.761    8.44068    8.42178 1.4574e+02     5.2989     2.1132    58.9599   997.3757  0.000e+00
      0.160    23.8388    23.8445     96.284  94.058596      0.228     8.1690     96.778    8.44102    8.42212 1.3590e+02     5.2968     2.1166    58.9111   997.3762  0.000e+00
      0.160    23.8378    23.8435     96.286  94.058596      0.228     8.1642     96.718    8.44118    8.42228 1.3722e+02     5.2883     2.1224    58.8252   997.3765  0.000e+00
      0.158    23.8380    23.8437     96.285  94.058596      0.225     8.1553     96.613    8.44115    8.42225 1.6512e+02     5.2989     2.1264    58.7660   997.3764  0.000e+00
      0.162    23.8385    23.8443     96.347  94.119653      0.230     8.1470     96.516    8.44106    8.42216 1.5254e+02     5.2629     2.1252    58.7837   997.3763  0.000e+00
      0.164    23.8395    23.8452     96.282  94.058596      0.233     8.1500     96.554    8.44091    8.42201 1.4069e+02     5.2756     2.1122    58.9748   997.3761  0.000e+00
      0.162    23.8408    23.8465     96.342  94.119653      0.230     8.1610     96.687    8.44071    8.42181 1.5146e+02     5.2904     2.1297    58.7186   997.3758  0.000e+00
      0.160    23.8412    23.8469     96.341  94.119653      0.228     8.1700     96.794    8.44064    8.42173 1.4742e+02     5.2608     2.1257    58.7763   997.3756  0.000e+00
      0.162    23.8409    23.8466     96.436  94.211239      0.230     8.1786     96.895    8.44069    8.42179 1.6706e+02     5.2056     2.1298    58.7171   997.3758  0.000e+00
      0.160    23.8409    23.8466     96.280  94.058595      0.228     8.1855     96.977    8.44069    8.42179 1.6109e+02     5.1611     2.1198    58.8637   997.3757  0.000e+00
      0.158    23.8413    23.8470     96.341  94.119653      0.225     8.1882     97.009    8.44062    8.42172 1.5632e+02     5.1420     2.1223    58.8267   997.3756  0.000e+00
      0.158    23.8407    23.8464     96.342  94.119653      0.225     8.1865     96.988    8.44072    8.42182 1.4127e+02     5.1399     2.1131    58.9614   997.3758  0.000e+00
      0.162    23.8396    23.8453     96.282  94.058596      0.230     8.1843     96.961    8.44089    8.42199 1.8555e+02     5.1781     2.1167    58.9096   997.3760  0.000e+00
      0.162    23.8393    23.8450     96.345  94.119653      0.230     8.1845     96.962    8.44095    8.42205 1.4762e+02     5.1929     2.1382    58.5927   997.3761  0.000e+00
      0.163    23.8395    23.8452     96.345  94.119653      0.231     8.1923     97.055    8.44091    8.42200 1.5813e+02     5.2141     2.1232    58.8134   997.3761  0.000e+00
      0.162    23.8427    23.8484     96.432  94.211239      0.230     8.1824     96.944    8.44041    8.42150 1.4464e+02     5.2162     2.1196    58.8667   997.3753  0.000e+00
      0.159    23.8462    23.8519     96.332  94.119651      0.227     8.1852     96.982    8.43986    8.42095 2.0646e+02     5.2396     2.1244    58.7956   997.3744  0.000e+00
      0.159    23.8471    23.8528     96.330  94.119651      0.227     8.1866     97.001    8.43971    8.42081 1.5823e+02     5.2353     2.1225    58.8237   997.3742  0.000e+00
      0.163    23.8458    23.8515     96.270  94.058594      0.231     8.1884     97.020    8.43991    8.42101 1.5704e+02     5.2608     2.1164    58.9140   997.3745  0.000e+00
      0.159    23.8441    23.8498     96.429  94.211238      0.227     8.1803     96.921    8.44018    8.42128 1.6691e+02     5.1993     2.1350    58.6401   997.3750  0.000e+00
      0.163    23.8430    23.8487     96.275  94.058595      0.231     8.1813     96.931    8.44035    8.42145 1.5226e+02     5.2014     2.1176    58.8963   997.3752  0.000e+00
      0.163    23.8428    23.8486     96.338  94.119652      0.231     8.1866     96.993    8.44038    8.42148 1.8027e+02     5.1760     2.1110    58.9925   997.3753  0.000e+00
      0.162    23.8436    23.8494     96.430  94.211238      0.230     8.1745     96.851    8.44025    8.42135 1.8310e+02     5.1145     2.0978    59.1880   997.3751  0.000e+00
      0.160    23.8478    23.8535     96.266  94.058593      0.228     8.1730     96.841    8.43960    8.42070 1.7631e+02     5.1272     2.1059    59.0680   997.3740  0.000e+00
      0.158    23.8533    23.8591     96.411  94.211235      0.225     8.1713     96.830    8.43872    8.41981 1.7434e+02     5.1399     2.1116    58.9836   997.3727  0.000e+00
      0.160    23.8607    23.8664     96.303  94.119647      0.228     8.1807     96.956    8.43756    8.41865 1.7470e+02     5.1611     2.1208    58.8489   997.3709  0.000e+00
      0.162    23.8687    23.8744     96.475  94.302818      0.230     8.1816     96.981    8.43629    8.41738 1.5802e+02     5.1844     2.1190    58.8755   997.3690  0.000e+00
      0.162    23.8727    23.8784     96.373  94.211230      0.230     8.1928     97.121    8.43566    8.41674 1.6603e+02     5.2459     2.1100    59.0073   997.3679  0.000e+00
      0.159    23.8733    23.8791     96.216  94.058585      0.227     8.1993     97.199    8.43556    8.41664 1.8782e+02     5.2290     2.1011    59.1391   997.3677  0.000e+00
      0.160    23.8709    23.8767     96.283  94.119644      0.228     8.2011     97.216    8.43594    8.41702 1.7422e+02     5.2184     2.1121    58.9762   997.3683  0.000e+00
      0.159    23.8700    23.8758     96.472  94.302817      0.227     8.1908     97.092    8.43608    8.41716 1.5973e+02     5.2078     2.1045    59.0888   997.3686  0.000e+00
      0.160    23.8714    23.8771     96.376  94.211230      0.228     8.1888     97.071    8.43587    8.41695 1.6253e+02     5.2141     2.0964    59.2087   997.3683  0.000e+00
      0.163    23.8723    23.8780     96.374  94.211230      0.231     8.1826     96.999    8.43573    8.41681 1.7422e+02     5.2883     2.1091    59.0206   997.3680  0.000e+00
      0.162    23.8729    23.8786     96.279  94.119643      0.230     8.1769     96.933    8.43563    8.41671 1.6653e+02     5.3095     2.1072    59.0488   997.3679  0.000e+00
      0.160    23.8742    23.8800     96.276  94.119643      0.228     8.1864     97.048    8.43542    8.41650 1.8006e+02     5.3201     2.0981    59.1835   997.3675  0.000e+00
      0.163    23.8764    23.8821     96.366  94.211228      0.231     8.1845     97.029    8.43508    8.41615 1.9279e+02     5.2841     2.1099    59.0088   997.3670  0.000e+00
      0.160    23.8781    23.8838     96.362  94.211228      0.228     8.1879     97.072    8.43481    8.41588 1.7542e+02     5.1866     2.1026    59.1169   997.3666  0.000e+00
      0.163    23.8798    23.8855     96.265  94.119641      0.231     8.1813     96.998    8.43454    8.41562 1.9367e+02     5.2078     2.1068    59.0547   997.3662  0.000e+00
      0.160    23.8823    23.8881     96.260  94.119640      0.228     8.1821     97.012    8.43414    8.41522 1.7550e+02     5.2459     2.0941    59.2427   997.3655  0.000e+00
      0.164    23.8837    23.8894     96.258  94.119640      0.233     8.1730     96.906    8.43393    8.41500 1.7558e+02     5.1844     2.0958    59.2176   997.3652  0.000e+00
      0.164    23.8845    23.8902     96.350  94.211226      0.233     8.1600     96.753    8.43380    8.41487 1.6347e+02     5.0636     2.0904    59.2975   997.3650  0.000e+00
      0.162    23.8860    23.8917     96.440  94.302813      0.230     8.1553     96.701    8.43356    8.41463 1.6146e+02     5.0085     2.1006    59.1465   997.3647  0.000e+00
      0.160    23.8869    23.8926     96.283  94.150167      0.228     8.1575     96.729    8.43342    8.41449 1.7631e+02     4.9343     2.1142    58.9466   997.3644  0.000e+00
      0.164    23.8872    23.8929     96.251  94.119639      0.233     8.1711     96.890    8.43338    8.41445 1.5511e+02     4.9470     2.0949    59.2309   997.3643  0.000e+00
      0.164    23.8896    23.8953     96.340  94.211224      0.233     8.1842     97.049    8.43299    8.41406 1.6456e+02     4.9703     2.0989    59.1717   997.3638  0.000e+00
      0.163    23.8935    23.8992     96.332  94.211223      0.231     8.1969     97.207    8.43238    8.41345 2.2278e+02     4.9131     2.0975    59.1924   997.3628  0.000e+00
      0.166    23.8957    23.9014     96.234  94.119636      0.236     8.2096     97.362    8.43203    8.41310 1.9871e+02     4.9004     2.1133    58.9585   997.3623  0.000e+00
      0.164    23.8967    23.9024     96.326  94.211222      0.233     8.2137     97.413    8.43187    8.41294 1.8077e+02     4.9195     2.0970    59.1998   997.3620  0.000e+00
      0.160    23.8971    23.9029     96.481  94.363867      0.228     8.2087     97.354    8.43180    8.41286 1.7659e+02     4.9407     2.1065    59.0591   997.3620  0.000e+00
      0.162    23.8986    23.9043     96.228  94.119635      0.230     8.1999     97.253    8.43158    8.41264 1.9319e+02     4.9513     2.0938    59.2472   997.3615  0.000e+00
      0.166    23.8989    23.9047     96.228  94.119635      0.236     8.1935     97.177    8.43152    8.41258 1.6661e+02     4.9237     2.0835    59.3997   997.3615  0.000e+00
      0.164    23.8984    23.9041     96.416  94.302809      0.233     8.1886     97.118    8.43160    8.41267 1.6703e+02     4.9385     2.0938    59.2472   997.3616  0.000e+00
      0.165    23.8971    23.9028     96.231  94.119636      0.234     8.1726     96.926    8.43182    8.41288 1.8470e+02     4.9322     2.1019    59.1273   997.3619  0.000e+00
      0.164    23.8967    23.9024     96.326  94.211222      0.233     8.1673     96.862    8.43187    8.41294 1.6837e+02     4.9640     2.1087    59.0266   997.3620  0.000e+00
      0.165    23.8957    23.9014     96.328  94.211223      0.234     8.1676     96.865    8.43203    8.41310 1.7842e+02     5.0000     2.0978    59.1880   997.3623  0.000e+00
      0.164    23.8939    23.8996     96.238  94.119637      0.233     8.1690     96.877    8.43231    8.41338 1.7216e+02     5.0276     2.0884    59.3271   997.3627  0.000e+00
      0.165    23.8913    23.8970     96.430  94.302811      0.234     8.1713     96.900    8.43272    8.41379 1.7366e+02     4.9915     2.1019    59.1273   997.3634  0.000e+00
      0.165    23.8896    23.8953     96.340  94.211224      0.234     8.1723     96.909    8.43299    8.41406 1.9926e+02     4.9576     2.0966    59.2057   997.3638  0.000e+00
      0.163    23.8882    23.8939     96.343  94.211225      0.231     8.1718     96.900    8.43322    8.41429 2.1309e+02     4.9491     2.0893    59.3138   997.3641  0.000e+00
      0.165    23.8899    23.8956     96.339  94.211224      0.234     8.1785     96.983    8.43295    8.41402 1.6934e+02     4.9025     2.0903    59.2990   997.3637  0.000e+00
      0.164    23.8918    23.8976     96.273  94.150166      0.233     8.1716     96.905    8.43264    8.41371 1.8189e+02     4.9534     2.0990    59.1702   997.3632  0.000e+00
      0.167    23.8919    23.8977     96.241  94.119637      0.238     8.1761     96.958    8.43263    8.41369 1.9439e+02     4.9513     2.0867    59.3523   997.3632  0.000e+00
      0.163    23.8921    23.8979     96.335  94.211224      0.231     8.1733     96.925    8.43260    8.41366 1.8256e+02     4.9089     2.0968    59.2028   997.3632  0.000e+00
      0.160    23.8924    23.8981     96.241  94.119637      0.228     8.1759     96.956    8.43255    8.41362 1.7362e+02     4.9046     2.0931    59.2576   997.3631  0.000e+00
      0.163    23.8919    23.8977     96.335  94.211224      0.231     8.1783     96.984    8.43262    8.41369 2.0917e+02     4.9301     2.0799    59.4530   997.3632  0.000e+00
      0.162    23.8910    23.8967     96.337  94.211224      0.230     8.1684     96.865    8.43278    8.41385 1.7019e+02     4.8749     2.0904    59.2975   997.3634  0.000e+00
      0.164    23.8904    23.8961     96.182  94.058580      0.233     8.1842     97.052    8.43287    8.41394 1.6265e+02     4.8347     2.0862    59.3597   997.3635  0.000e+00
      0.165    23.8906    23.8963     96.338  94.211224      0.234     8.1889     97.107    8.43284    8.41391 1.7216e+02     4.7435     2.0715    59.5788   997.3635  0.000e+00
      0.163    23.8910    23.8968     96.337  94.211224      0.231     8.1981     97.218    8.43277    8.41383 1.8010e+02     4.6863     2.0810    59.4367   997.3634  0.000e+00
      0.164    23.8916    23.8973     96.429  94.302811      0.233     8.2031     97.277    8.43268    8.41375 2.1679e+02     4.6608     2.0830    59.4071   997.3633  0.000e+00
      0.164    23.8920    23.8978     96.241  94.119637      0.233     8.2033     97.281    8.43261    8.41368 1.6864e+02     4.6205     2.0902    59.3005   997.3632  0.000e+00
      0.163    23.8918    23.8975     96.429  94.302811      0.231     8.2023     97.269    8.43265    8.41372 1.7522e+02     4.6523     2.0926    59.2650   997.3633  0.000e+00
      0.165    23.8916    23.8973     96.180  94.058580      0.234     8.2029     97.275    8.43268    8.41375 1.8700e+02     4.7350     2.0853    59.3730   997.3632  0.000e+00
      0.165    23.8915    23.8972     96.336  94.211224      0.234     8.1919     97.144    8.43269    8.41376 1.7486e+02     4.7880     2.0771    59.4945   997.3633  0.000e+00
      0.166    23.8926    23.8983     96.334  94.211224      0.236     8.1867     97.085    8.43252    8.41359 1.7924e+02     4.8622     2.0768    59.5004   997.3631  0.000e+00
      0.165    23.8941    23.8998     96.331  94.211223      0.234     8.1898     97.124    8.43228    8.41335 1.7243e+02     4.8198     2.0871    59.3464   997.3627  0.000e+00
      0.169    23.8947    23.9005     96.330  94.211223      0.241     8.1903     97.132    8.43218    8.41325 2.4182e+02     4.8580     2.0892    59.3153   997.3625  0.000e+00
      0.172    23.8966    23.9023     96.326  94.211222      0.245     8.1927     97.164    8.43189    8.41295 2.2999e+02     4.8580     2.0801    59.4500   997.3621  0.000e+00
      0.182    23.8977    23.9034     96.324  94.211222      0.259     8.1918     97.154    8.43172    8.41278 1.7035e+02     4.8961     2.0821    59.4204   997.3619  0.000e+00
      0.183    23.8998    23.9056     96.382  94.272279      0.261     8.1902     97.139    8.43137    8.41244 1.6336e+02     4.9640     2.0882    59.3301   997.3614  0.000e+00
      0.183    23.9022    23.9079     96.409  94.302808      0.261     8.1871     97.107    8.43101    8.41207 2.1560e+02     4.9364     2.0947    59.2339   997.3608  0.000e+00
      0.177    23.9042    23.9099     96.217  94.119634      0.252     8.1883     97.125    8.43070    8.41176 1.6918e+02     4.8516     2.0892    59.3153   997.3602  0.000e+00
      0.172    23.9067    23.9124     96.400  94.302806      0.245     8.1794     97.024    8.43030    8.41136 1.8143e+02     4.8029     2.0933    59.2546   997.3596  0.000e+00
      0.175    23.9087    23.9144     96.209  94.119632      0.248     8.1811     97.047    8.42999    8.41105 1.6369e+02     4.7223     2.0840    59.3923   997.3591  0.000e+00
      0.177    23.9096    23.9154     96.300  94.211218      0.252     8.1790     97.024    8.42983    8.41089 1.7406e+02     4.6651     2.0838    59.3952   997.3589  0.000e+00
      0.181    23.9098    23.9156     96.393  94.302805      0.258     8.1792     97.027    8.42980    8.41086 1.7200e+02     4.6545     2.0867    59.3523   997.3589  0.000e+00
      0.178    23.9091    23.9148     96.208  94.119632      0.253     8.1876     97.125    8.42992    8.41098 1.8323e+02     4.6587     2.0806    59.4426   997.3590  0.000e+00
      0.171    23.9084    23.9141     96.552  94.455452      0.244     8.1921     97.178    8.43002    8.41108 2.3243e+02     4.6608     2.0907    59.2931   997.3593  0.000e+00
      0.164    23.9071    23.9129     96.212  94.119632      0.233     8.1917     97.171    8.43023    8.41129 1.7430e+02     4.5676     2.0960    59.2146   997.3594  0.000e+00
      0.158    23.9050    23.9107     96.403  94.302807      0.225     8.1891     97.136    8.43057    8.41163 1.8369e+02     4.4679     2.1078    59.0399   997.3600  0.000e+00
      0.162    23.9035    23.9093     96.219  94.119634      0.230     8.1860     97.096    8.43080    8.41186 1.7895e+02     4.4086     2.1184    58.8844   997.3603  0.000e+00
      0.168    23.9051    23.9108     96.403  94.302807      0.239     8.1826     97.059    8.43055    8.41161 1.8513e+02     4.3725     2.1063    59.0621   997.3600  0.000e+00
      0.172    23.9067    23.9124     96.212  94.119633      0.245     8.1890     97.137    8.43030    8.41136 1.8657e+02     4.4298     2.0989    59.1717   997.3596  0.000e+00
      0.171    23.9069    23.9127     96.462  94.363864      0.244     8.1926     97.181    8.43025    8.41131 1.8256e+02     4.4912     2.1043    59.0917   997.3596  0.000e+00
      0.169    23.9079    23.9137     96.397  94.302806      0.241     8.1899     97.150    8.43010    8.41116 1.8097e+02     4.5442     2.0848    59.3804   997.3593  0.000e+00
      0.163    23.9075    23.9132     96.211  94.119632      0.231     8.1887     97.136    8.43017    8.41123 1.7534e+02     4.5972     2.1091    59.0206   997.3593  0.000e+00
      0.164    23.9064    23.9121     96.400  94.302806      0.233     8.1887     97.134    8.43034    8.41140 1.7113e+02     4.6036     2.1062    59.0636   997.3597  0.000e+00
      0.168    23.9048    23.9105     96.247  94.150162      0.239     8.1916     97.165    8.43060    8.41166 1.6581e+02     4.5421     2.0978    59.1880   997.3600  0.000e+00
      0.172    23.9027    23.9085     96.470  94.363866      0.245     8.1958     97.211    8.43092    8.41198 1.6981e+02     4.5082     2.0976    59.1909   997.3606  0.000e+00
      0.167    23.9023    23.9080     96.315  94.211221      0.238     8.1922     97.168    8.43099    8.41206 1.8131e+02     4.5018     2.0995    59.1628   997.3607  0.000e+00
      0.167    23.9025    23.9083     96.314  94.211220      0.238     8.1863     97.098    8.43095    8.41201 1.8593e+02     4.5506     2.1086    59.0281   997.3606  0.000e+00
      0.167    23.9025    23.9082     96.408  94.302808      0.238     8.1833     97.062    8.43096    8.41203 1.8072e+02     4.5887     2.0976    59.1909   997.3607  0.000e+00
      0.175    23.9034    23.9091     96.219  94.119634      0.248     8.1905     97.150    8.43083    8.41189 1.6309e+02     4.6121     2.0935    59.2516   997.3604  0.000e+00
      0.172    23.9085    23.9142     96.459  94.363864      0.245     8.1994     97.265    8.43001    8.41107 1.8525e+02     4.6163     2.0910    59.2886   997.3592  0.000e+00
      0.170    23.9145    23.9202     96.197  94.119630      0.242     8.2016     97.302    8.42907    8.41012 1.8825e+02     4.5781     2.1125    58.9703   997.3576  0.000e+00
      0.198    23.9169    23.9227     96.192  94.119630      0.281     8.1970     97.252    8.42868    8.40974 1.6362e+02     4.5612     2.1013    59.1361   997.3572  0.000e+00
      0.225    23.9204    23.9262     96.435  94.363861      0.320     8.1986     97.277    8.42813    8.40918 1.6833e+02     4.5930     2.1246    58.7926   997.3565  0.000e+00
      0.247    23.9287    23.9344     96.263  94.211213      0.352     8.1988     97.294    8.42683    8.40787 1.7867e+02     4.6714     2.1023    59.1213   997.3545  0.000e+00
      0.268    23.9341    23.9398     96.346  94.302799      0.381     8.2023     97.345    8.42597    8.40702 1.5951e+02     4.6799     2.1238    58.8045   997.3533  0.000e+00
      0.283    23.9313    23.9371     96.414  94.363858      0.403     8.2045     97.366    8.42641    8.40746 1.4507e+02     4.7371     2.1096    59.0132   997.3541  0.000e+00
      0.286    23.9281    23.9338     96.264  94.211214      0.406     8.1991     97.296    8.42692    8.40797 1.4742e+02     4.7477     2.1028    59.1139   997.3548  0.000e+00
      0.272    23.9274    23.9331     96.421  94.363859      0.388     8.1982     97.285    8.42703    8.40808 1.5582e+02     4.8389     2.0952    59.2265   997.3550  0.000e+00
      0.197    23.9269    23.9326     96.360  94.302800      0.280     8.1958     97.255    8.42711    8.40816 1.8106e+02     4.8771     2.1124    58.9718   997.3548  0.000e+00
      0.084    23.9265    23.9323     96.173  94.119626      0.119     8.1952     97.248    8.42717    8.40822 1.9142e+02     5.0318     2.1290    58.7275   997.3543  0.000e+00
     -0.001    23.9266    23.9324     96.360  94.302799     -0.002     8.1897     97.183    8.42715    8.40820 1.9667e+02     5.1696     2.1238    58.8045   997.3540  0.000e+00
     -0.037    23.9315    23.9372     96.413  94.363855     -0.053     8.1920     97.218    8.42638    8.40743 2.7174e+02     5.3074     2.1275    58.7497   997.3526  0.000e+00
     -0.045    23.9413    23.9470     96.176  94.150149     -0.064     8.1915     97.231    8.42484    8.40588 2.4794e+02     5.3731     2.1516    58.3973   997.3501  0.000e+00
     -0.045    23.9472    23.9530     96.382  94.363850     -0.064     8.1878     97.198    8.42390    8.40494 2.2125e+02     5.2883     2.1217    58.8356   997.3487  0.000e+00
     -0.025    23.9504    23.9561     96.376  94.363849     -0.036     8.1874     97.198    8.42340    8.40444 2.0580e+02     5.2756     2.1231    58.8148   997.3480  0.000e+00
     -0.010    23.9518    23.9576     96.217  94.211204     -0.014     8.1851     97.173    8.42318    8.40422 1.9546e+02     5.2756     2.1298    58.7171   997.3477  0.000e+00
     -0.002    23.9544    23.9602     96.368  94.363848     -0.003     8.1909     97.248    8.42277    8.40380 2.0091e+02     5.3858     2.1220    58.8311   997.3471  0.000e+00
     -0.002    23.9525    23.9582     96.465  94.455437     -0.003     8.1999     97.351    8.42308    8.40411 1.6988e+02     5.4113     2.1111    58.9910   997.3476  0.000e+00
     -0.015    23.9521    23.9578     96.217  94.211204     -0.022     8.2058     97.420    8.42314    8.40417 1.5618e+02     5.4240     2.1119    58.9792   997.3476  0.000e+00
     -0.034    23.9537    23.9595     96.213  94.211203     -0.048     8.1995     97.348    8.42288    8.40392 1.4691e+02     5.4685     2.0974    59.1939   997.3471  0.000e+00
     -0.044    23.9552    23.9609     96.554  94.547023     -0.062     8.1994     97.349    8.42265    8.40368 1.3194e+02     5.5194     2.0944    59.2383   997.3468  0.000e+00
     -0.069    23.9551    23.9608     96.304  94.302789     -0.098     8.1927     97.270    8.42267    8.40370 1.4046e+02     5.5512     2.1010    59.1406   997.3466  0.000e+00
     -0.145    23.9540    23.9597     96.119  94.119615     -0.206     8.1903     97.239    8.42284    8.40388 2.1733e+02     5.5173     2.1155    58.9274   997.3465  0.000e+00
     -0.236    23.9506    23.9563     96.469  94.455435     -0.336     8.1865     97.188    8.42337    8.40441 1.8670e+02     5.4897     2.1194    58.8696   997.3471  0.000e+00
     -0.278    23.9474    23.9532     96.382  94.363848     -0.395     8.1788     97.090    8.42387    8.40491 1.4372e+02     5.4791     2.1239    58.8030   997.3476  0.000e+00
     -0.283    23.9465    23.9523     96.134  94.119616     -0.403     8.1863     97.178    8.42402    8.40506 1.2679e+02     5.5024     2.1296    58.7201   997.3477  0.000e+00
     -0.355    23.9479    23.9536     96.225  94.211202     -0.505     8.1682     96.965    8.42381    8.40484 8.1361e+01     5.4918     2.1356    58.6312   997.3471  0.000e+00
     -0.412    23.9490    23.9548     96.472  94.455434     -0.586     8.1626     96.902    8.42362    8.40465 7.3964e+01     5.4939     2.1222    58.8282   997.3467  0.000e+00
     -0.388    23.9512    23.9569     96.312  94.302788     -0.552     8.1412     96.651    8.42328    8.40431 7.2321e+01     5.4855     2.1205    58.8533   997.3462  0.000e+00
     -0.359    23.9560    23.9617     96.209  94.211199     -0.511     8.1293     96.518    8.42253    8.40356 5.6363e+01     5.5427     2.1152    58.9318   997.3451  0.000e+00
     -0.423    23.9598    23.9656     96.357  94.363843     -0.602     8.1273     96.502    8.42192    8.40295 5.1239e+01     5.6105     2.1169    58.9066   997.3439  0.000e+00
     -0.480    23.9624    23.9681     96.446  94.455429     -0.683     8.1472     96.743    8.42152    8.40255 7.7485e+01     5.6890     2.1143    58.9451   997.3431  0.000e+00
     -0.530    23.9640    23.9697     96.349  94.363841     -0.753     8.1511     96.792    8.42126    8.40229 7.9372e+01     5.7377     2.1187    58.8800   997.3424  0.000e+00
     -0.591    23.9647    23.9705     96.192  94.211195     -0.841     8.1455     96.727    8.42115    8.40218 8.4244e+01     5.8670     2.1200    58.8607   997.3419  0.000e+00
     -0.604    23.9669    23.9726     96.530  94.547015     -0.859     8.1628     96.936    8.42081    8.40183 9.2840e+01     5.8692     2.1377    58.6002   997.3414  0.000e+00
     -0.588    23.9678    23.9735     96.435  94.455427     -0.836     8.1610     96.917    8.42067    8.40169 9.7216e+01     5.9306     2.1357    58.6298   997.3413  0.000e+00
     -0.533    23.9674    23.9732     96.342  94.363840     -0.758     8.1775     97.112    8.42073    8.40175 4.2200e+01     5.8522     2.1288    58.7304   997.3416  0.000e+00
     -0.479    23.9689    23.9747     96.277  94.302781     -0.681     8.1849     97.202    8.42049    8.40151 6.7532e+01     5.8246     2.1318    58.6875   997.3414  0.000e+00
     -0.448    23.9700    23.9758     96.275  94.302781     -0.638     8.1909     97.276    8.42032    8.40134 5.5530e+01     5.8607     2.1206    58.8519   997.3413  0.000e+00
     -0.290    23.9693    23.9751     96.339  94.363841     -0.413     8.1939     97.309    8.42043    8.40145 1.4283e+02     5.9052     2.1347    58.6446   997.3422  0.000e+00
     -0.079    23.9661    23.9719     96.438  94.455432     -0.112     8.1980     97.353    8.42092    8.40195 1.3877e+02     6.0197     2.1261    58.7704   997.3439  0.000e+00
      0.011    23.9619    23.9677     96.291  94.302788      0.016     8.1964     97.327    8.42159    8.40262 1.4594e+02     6.0727     2.1422    58.5350   997.3453  0.000e+00
      0.055    23.9598    23.9655     96.295  94.302789      0.078     8.1871     97.212    8.42193    8.40296 1.5615e+02     6.1045     2.2661    56.7494   997.3460  0.000e+00
      0.144    23.9600    23.9658     96.357  94.363848      0.205     8.1576     96.861    8.42189    8.40292 1.5437e+02     6.2147     2.1814    57.9635   997.3464  0.000e+00
      0.297    23.9606    23.9663     96.356  94.363849      0.422     8.1218     96.437    8.42180    8.40283 1.6238e+02     6.2804     2.2043    57.6333   997.3469  0.000e+00
      0.357    23.9581    23.9639     96.361  94.363850      0.508     8.0946     96.110    8.42219    8.40322 1.5965e+02     6.4479     2.1786    58.0049   997.3478  0.000e+00
      0.352    23.9558    23.9615     96.209  94.211206      0.500     8.0692     95.804    8.42256    8.40359 1.5077e+02     6.4967     2.1511    58.4047   997.3483  0.000e+00
      0.352    23.9546    23.9604     96.368  94.363851      0.500     8.0475     95.545    8.42274    8.40377 1.6392e+02     6.5645     2.1477    58.4536   997.3486  0.000e+00
      0.347    23.9548    23.9605     96.211  94.211206      0.494     8.0258     95.287    8.42271    8.40375 1.4501e+02     6.6069     2.1280    58.7423   997.3485  0.000e+00
      0.349    23.9552    23.9609     96.367  94.363851      0.497     8.0192     95.210    8.42265    8.40369 1.2420e+02     6.5751     2.1298    58.7171   997.3485  0.000e+00
      0.354    23.9564    23.9622     96.364  94.363851      0.503     8.0293     95.332    8.42246    8.40349 1.2895e+02     6.5687     2.1317    58.6890   997.3482  0.000e+00
      0.347    23.9580    23.9638     96.361  94.363850      0.494     8.0561     95.654    8.42220    8.40323 1.3014e+02     6.5878     2.1281    58.7408   997.3478  0.000e+00
      0.343    23.9587    23.9644     96.297  94.302792      0.488     8.0786     95.921    8.42210    8.40313 1.3469e+02     6.5539     2.1224    58.8252   997.3476  0.000e+00
      0.345    23.9594    23.9651     96.296  94.302792      0.491     8.0811     95.953    8.42199    8.40302 1.2406e+02     6.5221     2.1433    58.5187   997.3474  0.000e+00
      0.348    23.9603    23.9660     96.450  94.455437      0.495     8.0786     95.924    8.42184    8.40287 1.4299e+02     6.4839     2.1152    58.9318   997.3473  0.000e+00
      0.357    23.9608    23.9666     96.293  94.302791      0.508     8.0875     96.031    8.42176    8.40279 1.3252e+02     6.4437     2.1094    59.0162   997.3471  0.000e+00
      0.368    23.9613    23.9670     96.292  94.302791      0.523     8.0960     96.133    8.42169    8.40272 1.5787e+02     6.4267     2.1095    59.0147   997.3470  0.000e+00
      0.396    23.9618    23.9676     96.353  94.363850      0.563     8.1019     96.203    8.42160    8.40263 1.5469e+02     6.4733     2.1065    59.0591   997.3471  0.000e+00
      0.423    23.9622    23.9679     96.290  94.302791      0.602     8.1059     96.251    8.42155    8.40258 1.3026e+02     6.5497     2.1508    58.4092   997.3471  0.000e+00
      0.436    23.9628    23.9686     96.351  94.363850      0.620     8.1078     96.275    8.42145    8.40248 1.3337e+02     6.4776     2.1348    58.6431   997.3470  0.000e+00
      0.438    23.9630    23.9687     96.289  94.302791      0.624     8.1109     96.313    8.42142    8.40245 1.4114e+02     6.5094     2.1100    59.0073   997.3469  0.000e+00
      0.452    23.9632    23.9689     96.288  94.302791      0.642     8.1215     96.439    8.42139    8.40242 1.2329e+02     6.5730     2.1117    58.9822   997.3469  0.000e+00
      0.516    23.9634    23.9691     96.350  94.363850      0.734     8.1185     96.403    8.42136    8.40239 1.3975e+02     6.5560     2.1431    58.5217   997.3472  0.000e+00
      0.619    23.9634    23.9692     96.194  94.211206      0.880     8.1168     96.384    8.42135    8.40238 1.2488e+02     6.6768     2.1242    58.7986   997.3476  0.000e+00
      0.700    23.9636    23.9694     96.288  94.302793      0.995     8.1167     96.383    8.42132    8.40235 1.2468e+02     6.6938     2.1035    59.1036   997.3479  0.000e+00
      0.747    23.9626    23.9684     96.352  94.363852      1.063     8.1153     96.365    8.42148    8.40251 1.1478e+02     6.6938     2.1202    58.8578   997.3484  0.000e+00
      0.771    23.9586    23.9643     96.360  94.363854      1.097     8.1073     96.262    8.42211    8.40315 1.1400e+02     6.7426     2.2092    57.5622   997.3495  0.000e+00
      0.791    23.9573    23.9631     96.362  94.363854      1.125     8.1045     96.226    8.42231    8.40334 1.1273e+02     6.6684     2.3724    55.2613   997.3499  0.000e+00
      0.837    23.9579    23.9636     96.299  94.302796      1.191     8.1063     96.249    8.42223    8.40326 1.1400e+02     6.7002     2.3365    55.7588   997.3500  0.000e+00
      0.906    23.9585    23.9642     96.298  94.302797      1.289     8.1159     96.364    8.42213    8.40316 1.0110e+02     6.7892     2.2268    57.3090   997.3501  0.000e+00
      0.977    23.9579    23.9636     96.205  94.211211      1.389     8.1261     96.484    8.42223    8.40326 1.0541e+02     6.8464     2.1674    58.1678   997.3506  0.000e+00
      1.059    23.9459    23.9516     96.229  94.211215      1.506     8.1357     96.577    8.42412    8.40516 9.9264e+01     6.9100     2.1231    58.8148   997.3539  0.000e+00
      1.134    23.9131    23.9189     96.200  94.119639      1.613     8.1415     96.586    8.42928    8.41034 1.0170e+02     6.9524     2.1147    58.9392   997.3623  0.000e+00
      1.191    23.8761    23.8819     96.210  94.058594      1.694     8.1516     96.638    8.43512    8.41620 9.5166e+01     7.0542     2.1010    59.1406   997.3716  0.000e+00
      1.245    23.8396    23.8453     96.282  94.058605      1.770     8.1403     96.439    8.44089    8.42199 8.8559e+01     7.0839     2.1099    59.0088   997.3808  0.000e+00
      1.310    23.8128    23.8185     96.241  93.967028      1.863     8.1183     96.130    8.44513    8.42625 8.9621e+01     7.1008     2.1090    59.0221   997.3877  0.000e+00
      1.379    23.7970    23.8028     96.272  93.967033      1.961     8.1043     95.936    8.44763    8.42875 8.5705e+01     7.1559     2.1261    58.7704   997.3918  0.000e+00
      1.437    23.7911    23.7968     96.190  93.875450      2.044     8.1035     95.916    8.44857    8.42969 8.5626e+01     7.1581     2.1718    58.1027   997.3935  0.000e+00
      1.500    23.7892    23.7950     96.288  93.967037      2.133     8.1009     95.882    8.44886    8.42999 7.7237e+01     7.2132     2.1247    58.7912   997.3943  0.000e+00
      1.577    23.7825    23.7882     96.395  94.058626      2.242     8.1009     95.869    8.44992    8.43106 8.1510e+01     7.2344     2.1235    58.8089   997.3963  0.000e+00
      1.646    23.7743    23.7800     96.317  93.967043      2.341     8.1087     95.947    8.45123    8.43237 7.4884e+01     7.2810     2.1246    58.7926   997.3986  0.000e+00
      1.704    23.7687    23.7744     96.485  94.119688      2.424     8.1249     96.129    8.45212    8.43326 7.3222e+01     7.3616     2.1248    58.7897   997.4003  0.000e+00
      1.777    23.7639    23.7696     96.432  94.058633      2.527     8.1453     96.361    8.45287    8.43402 7.1465e+01     7.4421     2.1271    58.7556   997.4018  0.000e+00
      1.847    23.7593    23.7650     96.441  94.058635      2.627     8.1520     96.432    8.45361    8.43476 7.0829e+01     7.4570     2.1153    58.9303   997.4032  0.000e+00
      1.900    23.7547    23.7604     96.262  93.875465      2.702     8.1436     96.324    8.45434    8.43549 7.0295e+01     7.5206     2.1147    58.9392   997.4045  0.000e+00
      1.970    23.7514    23.7571     96.206  93.814410      2.802     8.1388     96.262    8.45486    8.43601 6.5206e+01     7.6096     2.1425    58.5306   997.4056  0.000e+00
      2.048    23.7495    23.7552     96.241  93.844940      2.913     8.1415     96.290    8.45516    8.43631 6.6033e+01     7.7241     2.1385    58.5883   997.4064  0.000e+00
      2.116    23.7488    23.7545     96.274  93.875469      3.010     8.1464     96.347    8.45527    8.43643 6.4198e+01     7.7474     2.1539    58.3633   997.4069  0.000e+00
      2.192    23.7471    23.7528     96.277  93.875470      3.117     8.1472     96.353    8.45554    8.43670 6.0167e+01     7.7410     2.1380    58.5957   997.4077  0.000e+00
      2.285    23.7430    23.7487     96.379  93.967058      3.250     8.1547     96.434    8.45619    8.43735 5.7961e+01     7.7092     2.1434    58.5172   997.4091  0.000e+00
      2.365    23.7398    23.7455     96.291  93.875474      3.364     8.1634     96.531    8.45670    8.43786 5.7301e+01     7.6986     2.1541    58.3603   997.4102  0.000e+00
      2.440    23.7356    23.7413     96.394  93.967062      3.471     8.1659     96.554    8.45737    8.43853 5.6286e+01     7.7559     2.1489    58.4373   997.4116  0.000e+00
      2.521    23.7292    23.7349     96.250  93.814422      3.586     8.1670     96.555    8.45838    8.43954 5.4235e+01     7.7453     2.1449    58.4950   997.4135  0.000e+00
      2.610    23.7200    23.7257     96.268  93.814426      3.713     8.1605     96.461    8.45984    8.44101 5.1734e+01     7.8534     2.1356    58.6312   997.4161  0.000e+00
      2.671    23.7072    23.7129     96.293  93.814430      3.799     8.1476     96.286    8.46188    8.44306 5.1157e+01     7.8470     2.1425    58.5306   997.4195  0.000e+00
      2.728    23.6965    23.7022     96.220  93.722849      3.880     8.1322     96.084    8.46357    8.44475 4.8865e+01     7.8237     2.1370    58.6105   997.4224  0.000e+00
      2.802    23.6899    23.6955     96.328  93.814436      3.985     8.1216     95.948    8.46463    8.44582 4.8664e+01     7.7940     2.1186    58.8815   997.4244  0.000e+00
      2.864    23.6857    23.6913     96.242  93.722853      4.074     8.1109     95.813    8.46530    8.44649 4.6945e+01     7.8534     2.1220    58.8311   997.4256  0.000e+00
      2.930    23.6816    23.6873     96.250  93.722855      4.168     8.1085     95.778    8.46594    8.44713 4.5286e+01     7.8873     2.1294    58.7230   997.4269  0.000e+00
      3.016    23.6782    23.6838     96.351  93.814442      4.289     8.1134     95.830    8.46649    8.44768 4.4934e+01     7.8661     2.1204    58.8548   997.4282  0.000e+00
      3.098    23.6778    23.6835     96.257  93.722858      4.407     8.1185     95.889    8.46655    8.44774 4.2764e+01     7.9000     2.1255    58.7793   997.4286  0.000e+00
      3.172    23.6790    23.6847     96.349  93.814443      4.511     8.1216     95.927    8.46636    8.44756 4.1911e+01     7.9742     2.1150    58.9348   997.4287  0.000e+00
      3.231    23.6775    23.6831     96.258  93.722859      4.596     8.1200     95.907    8.46660    8.44780 4.1046e+01     7.9424     2.1320    58.6845   997.4293  0.000e+00
      3.285    23.6612    23.6669     96.196  93.631280      4.672     8.1172     95.843    8.46919    8.45039 4.0061e+01     7.8852     2.1139    58.9511   997.4334  0.000e+00
      3.351    23.6326    23.6383     96.096  93.478649      4.766     8.1154     95.771    8.47374    8.45496 3.9460e+01     7.9806     2.0994    59.1643   997.4406  0.000e+00
      3.428    23.5944    23.6001     95.983  93.295495      4.876     8.1139     95.685    8.47983    8.46107 3.7580e+01     8.0717     2.1168    58.9081   997.4502  0.000e+00
      3.500    23.5614    23.5670     95.985  93.234451      4.979     8.0998     95.459    8.48511    8.46637 3.6502e+01     8.0739     2.1129    58.9644   997.4586  0.000e+00
      3.566    23.5399    23.5455     96.185  93.387096      5.072     8.0775     95.158    8.48853    8.46981 3.5946e+01     8.0972     2.0963    59.2102   997.4641  0.000e+00
      3.635    23.5266    23.5323     96.054  93.234463      5.171     8.0346     94.628    8.49065    8.47194 3.4764e+01     8.0633     2.0943    59.2398   997.4676  0.000e+00
      3.732    23.5110    23.5167     95.833  92.990250      5.308     7.9897     94.073    8.49315    8.47445 3.3397e+01     8.0315     2.0900    59.3034   997.4717  0.000e+00
      3.816    23.4665    23.4721     95.575  92.654468      5.427     7.9518     93.548    8.50028    8.48160 3.2581e+01     8.0569     2.0634    59.6988   997.4828  0.000e+00
      3.883    23.3807    23.3863     95.492  92.410283      5.522     7.9179     92.998    8.51404    8.49541 3.2099e+01     7.9742     2.0364    60.1030   997.5037  0.000e+00
      3.954    23.2613    23.2669     96.140  92.807165      5.624     7.8875     92.433    8.53323    8.51468 3.0944e+01     8.0251     2.0162    60.4080   997.5329  0.000e+00
      4.024    23.1358    23.1413     93.917  90.426247      5.724     7.8426     91.688    8.55357    8.53510 3.0361e+01     7.9382     2.0085    60.5250   997.5625  0.000e+00
      4.091    22.8974    22.9029     92.314  88.442401      5.819     7.8186     90.995    8.59236    8.57404 2.9288e+01     7.8131     1.9921    60.7737   997.6188  0.000e+00
      4.166    22.4879    22.4933     91.986  87.374336      5.926     7.7792     89.833    8.65968    8.64163 2.8208e+01     7.7283     1.9833    60.9070   997.7148  0.000e+00
      4.240    22.0276    22.0329     91.751  86.306339      6.030     7.7013     88.151    8.73648    8.71875 2.8150e+01     7.5587     1.9706    61.1009   997.8206  0.000e+00
      4.289    21.5796    21.5847     91.848  85.574066      6.101     7.5775     85.987    8.81241    8.79500 2.7186e+01     7.3234     1.9643    61.1972   997.9217  0.000e+00
      4.343    21.2210    21.2261     92.461  85.482618      6.177     7.4151     83.559    8.87402    8.85686 2.6249e+01     7.0923     1.9296    61.7302   998.0013  0.000e+00
      4.424    20.9859    20.9909     92.603  85.177526      6.293     7.2289     81.088    8.91486    8.89788 2.5403e+01     6.7129     1.8834    62.4468   998.0529  0.000e+00
      4.507    20.7474    20.7524     91.985  84.170605      6.410     7.0952     79.217    8.95664    8.93983 2.4760e+01     6.3864     1.8781    62.5297   998.1045  0.000e+00
      4.581    20.4479    20.4528     92.054  83.682468      6.516     7.0259     77.982    9.00960    8.99301 2.4556e+01     6.2147     1.8961    62.2484   998.1685  0.000e+00
      4.661    20.1562    20.1610     92.109  83.194341      6.629     7.0088     77.345    9.06171    9.04534 2.2695e+01     6.6239     1.9346    61.6532   998.2300  0.000e+00
      4.736    19.8677    19.8724     92.259  82.797759      6.737     7.0556     77.416    9.11379    9.09763 2.2565e+01     7.0966     2.0155    60.4184   998.2899  0.000e+00
      4.815    19.5907    19.5954     91.874  81.943514      6.849     7.1389     77.899    9.16431    9.14836 2.1461e+01     9.1910     2.1383    58.5913   998.3465  0.000e+00
      4.907    19.3182    19.3229     91.820  81.394401      6.979     7.2565     78.751    9.21449    9.19875 2.0401e+01    11.0905     2.2784    56.5747   998.4016  0.000e+00
      4.987    19.0416    19.0462     91.635  80.723266      7.093     7.4258     80.141    9.26596    9.25042 1.9757e+01    14.4654     2.5387    53.0108   998.4565  0.000e+00
      5.054    18.7327    18.7372     91.550  80.082669      7.188     7.6456     81.999    9.32404    9.30873 1.8963e+01    16.7930     2.8570    48.9553   998.5169  0.000e+00
      5.118    18.4450    18.4494     91.665  79.655636      7.279     7.8873     84.097    9.37872    9.36363 1.8344e+01    18.9044     3.2094    44.8273   998.5723  0.000e+00
      5.193    18.1872    18.1916     91.753  79.259110      7.387     8.1169     86.092    9.42821    9.41331 1.7172e+01    20.6618     3.5657    41.0073   998.6212  0.000e+00
      5.260    17.9401    17.9444     91.500  78.588035      7.482     8.3489     88.105    9.47612    9.46139 1.6535e+01    21.9083     3.8098    38.5791   998.6673  0.000e+00
      5.325    17.6757    17.6799     91.495  78.100015      7.574     8.5680     89.926    9.52784    9.51331 1.5440e+01    24.3759     3.9516    37.2362   998.7159  0.000e+00
      5.394    17.4030    17.4072     91.616  77.703521      7.673     8.7356     91.170    9.58172    9.56738 1.4391e+01    26.1311     4.0720    36.1316   998.7652  0.000e+00
      5.455    17.1514    17.1555     91.946  77.520558      7.759     8.7942     91.302    9.63192    9.61775 1.3457e+01    28.9252     4.2262    34.7650   998.8101  0.000e+00
      5.525    16.9439    16.9480     91.928  77.124059      7.859     8.6957     89.890    9.67368    9.65966 1.2711e+01    30.8225     4.4217    33.1067   998.8466  0.000e+00
      5.593    16.7626    16.7666     91.926  76.788567      7.956     8.4099     86.606    9.71045    9.69655 1.1455e+01    33.3324     4.8325    29.8760   998.8782  0.000e+00
      5.681    16.5802    16.5842     91.926  76.453080      8.081     7.9377     81.431    9.74767    9.73390 1.0475e+01    36.9829     4.8819    29.5088   998.9096  0.000e+00
      5.768    16.3488    16.3527     92.145  76.209117      8.204     7.3183     74.713    9.79528    9.78166 9.4017e+00    43.6966     4.6049    31.6246   998.9489  0.000e+00
      5.842    16.0650    16.0688     92.597  76.056676      8.309     6.5862     66.836    9.85424    9.84081 8.5156e+00    48.8225     4.2844    34.2631   998.9961  0.000e+00
      5.917    15.7581    15.7619     92.995  75.812737      8.417     5.7542     58.014    9.91871    9.90547 7.6725e+00    53.1810     3.9867    36.9104   999.0461  0.000e+00
      5.987    15.4630    15.4667     93.673  75.812810      8.515     4.8458     48.548    9.98141    9.96836 7.1399e+00    56.3164     3.5976    40.6816   999.0933  0.000e+00
      6.060    15.1905    15.1941     93.777  75.385855      8.620     3.8704     38.550   10.03997   10.02708 6.4655e+00    57.1686     3.3874    42.8759   999.1358  0.000e+00
      6.131    14.9544    14.9580     94.141  75.233408      8.720     2.8876     28.615   10.09120   10.07844 5.8979e+00    54.8324     3.2468    44.4098   999.1721  0.000e+00
      6.209    14.7649    14.7685     94.398  75.080950      8.831     1.9502     19.246   10.13264   10.12000 5.2342e+00    52.5154     2.9717    47.5724   999.2008  0.000e+00
      6.291    14.5827    14.5862     94.293  74.653987      8.948     1.1014     10.827   10.17281   10.16027 4.8563e+00    50.7241     2.8729    48.7614   999.2279  0.000e+00
      6.365    14.4109    14.4144     94.588  74.562529      9.053     0.3659      3.583   10.21093   10.19848 4.6060e+00    48.2014     2.7570    50.1946   999.2532  0.000e+00
      6.428    14.2391    14.2425     94.458  74.135574      9.143    -0.2139     -2.087   10.24931   10.23695 4.2774e+00    43.9934     2.5262    53.1766   999.2780  0.000e+00
      6.482    14.0605    14.0638     94.500  73.830625      9.220    -0.6283     -6.107   10.28950   10.27723 4.1178e+00    41.0828     2.3936    54.9696   999.3034  0.000e+00
      6.559    13.8854    13.8888     94.847  73.769670      9.329    -0.8703     -8.426   10.32913   10.31695 3.8222e+00    35.7343     2.2068    57.5963   999.3281  0.000e+00
      6.633    13.7344    13.7377     94.154  72.946252      9.434    -0.9533     -9.199   10.36359   10.35148 3.6293e+00    30.8055     2.1033    59.1065   999.3489  0.000e+00
      6.696    13.5253    13.5286     94.428  72.763316      9.525    -0.9331     -8.962   10.41158   10.39957 3.4218e+00    26.3728     2.0222    60.3177   999.3774  0.000e+00
      6.745    13.3222    13.3254     94.610  72.519386      9.593    -0.8348     -7.982   10.45861   10.44669 3.3882e+00    23.2587     1.9834    60.9055   999.4044  0.000e+00
      6.792    13.1694    13.1725     94.869  72.427931      9.661    -0.6935     -6.608   10.49422   10.48237 3.1813e+00    20.4943     1.9901    60.8033   999.4246  0.000e+00
      6.850    13.0665    13.0697     94.725  72.122988      9.743    -0.5239     -4.981   10.51833   10.50652 3.0753e+00    17.9441     1.9650    61.1868   999.4380  0.000e+00
      6.918    12.9708    12.9739     94.081  71.452099      9.840    -0.3659     -3.472   10.54087   10.52909 2.9080e+00    15.3006     1.9080    62.0648   999.4502  0.000e+00
      6.986    12.8293    12.8324     93.143  70.476299      9.937    -0.2259     -2.136   10.57433   10.56261 2.7905e+00    13.5517     1.8971    62.2336   999.4679  0.000e+00
      7.061    12.6218    12.6248     92.441  69.561546     10.043    -0.1057     -0.995   10.62374   10.61210 2.7286e+00    11.9448     1.8981    62.2188   999.4936  0.000e+00
      7.121    12.3761    12.3791     92.315  69.012741     10.128    -0.0057     -0.053   10.68276   10.67121 2.7111e+00    10.9548     1.8947    62.2706   999.5234  0.000e+00
      7.177    12.1423    12.1452     92.978  69.073777     10.207     0.0863      0.804   10.73946   10.72798 2.5808e+00     9.7995     1.9031    62.1403   999.5514  0.000e+00
      7.252    11.9684    11.9713     93.209  68.921357     10.315     0.1758      1.630   10.78197   10.77054 2.4449e+00     8.9706     1.9146    61.9627   999.5718  0.000e+00
      7.327    11.8294    11.8322     93.437  68.829914     10.422     0.2748      2.541   10.81617   10.80479 2.4038e+00     8.0527     1.9136    61.9775   999.5879  0.000e+00
      7.404    11.6845    11.6873     93.931  68.921422     10.531     0.3848      3.546   10.85201   10.84066 2.3025e+00     7.2683     1.9119    62.0041   999.6045  0.000e+00
      7.480    11.5429    11.5456     94.295  68.921454     10.639     0.4853      4.457   10.88726   10.87595 2.2044e+00     6.8846     1.9579    61.2949   999.6205  0.000e+00
      7.550    11.4124    11.4152     94.633  68.921484     10.739     0.5561      5.092   10.91990   10.90862 2.1422e+00     6.8613     2.0595    59.7580   999.6350  0.000e+00
      7.613    11.2976    11.3003     94.806  68.830035     10.828     0.6049      5.525   10.94878   10.93752 2.0622e+00     6.8168     2.3345    55.7870   999.6475  0.000e+00
      7.674    11.2145    11.2172     95.024  68.830054     10.915     0.6116      5.575   10.96975   10.95852 2.0118e+00     6.9991     2.5786    52.4852   999.6565  0.000e+00
      7.737    11.1592    11.1619     95.169  68.830066     11.004     0.5903      5.374   10.98378   10.97255 1.9420e+00     8.9324     2.7838    49.8600   999.6626  0.000e+00
      7.818    11.1035    11.1061     95.316  68.830079     11.120     0.5344      4.859   10.99791   10.98670 1.7866e+00    10.8297     2.9173    48.2239   999.6688  0.000e+00
      7.898    11.0423    11.0450     95.605  68.921569     11.234     0.4660      4.231   11.01347   11.00227 1.6965e+00    11.9321     2.9142    48.2609   999.6755  0.000e+00
      7.973    10.9757    10.9784     95.909  69.013060     11.340     0.3906      3.541   11.03045   11.01926 1.5805e+00    13.1998     2.8575    48.9494   999.6827  0.000e+00
      8.050    10.9044    10.9070     96.015  68.952093     11.450     0.3313      2.999   11.04870   11.03752 1.4530e+00    13.4075     2.7980    49.6838   999.6903  0.000e+00
      8.123    10.8275    10.8301     96.306  69.013094     11.553     0.2861      2.585   11.06844   11.05727 1.3386e+00    13.2061     2.7848    49.8482   999.6984  0.000e+00
      8.188    10.7384    10.7410     96.418  68.921639     11.647     0.2483      2.239   11.09137   11.08022 1.2987e+00    13.1277     2.8298    49.2900   999.7075  0.000e+00
      8.270    10.6558    10.6584     96.642  68.921658     11.762     0.2368      2.131   11.11271   11.10157 1.1680e+00    13.2401     2.9089    48.3246   999.7160  0.000e+00
      8.354    10.5923    10.5949     96.557  68.738722     11.883     0.2241      2.014   11.12917   11.11804 1.1075e+00    12.4748     2.9550    47.7708   999.7225  0.000e+00
      8.437    10.5250    10.5275     96.397  68.494806     12.000     0.2199      1.973   11.14668   11.13556 1.0618e+00    11.7455     3.0728    46.3850   999.7293  0.000e+00
      8.501    10.4514    10.4539     96.382  68.342367     12.091     0.2178      1.951   11.16586   11.15474 1.0045e+00    11.2431     3.1837    45.1161   999.7365  0.000e+00
      8.574    10.3852    10.3877     96.347  68.189927     12.195     0.2163      1.934   11.18316   11.17205 9.3244e-01    10.9103     3.2711    44.1418   999.7430  0.000e+00
      8.649    10.3319    10.3344     96.492  68.189940     12.302     0.2192      1.958   11.19713   11.18603 8.9538e-01    10.4163     3.3365    43.4252   999.7484  0.000e+00
      8.695    10.2875    10.2899     96.960  68.433878     12.367     0.2121      1.892   11.20879   11.19769 8.8032e-01     9.8207     3.3891    42.8581   999.7529  0.000e+00
      8.729    10.2464    10.2489     97.289  68.586344     12.416     0.2178      1.941   11.21957   11.20848 8.6512e-01     9.2271     3.4255    42.4702   999.7569  0.000e+00
      8.793    10.2174    10.2198     97.499  68.677825     12.506     0.2176      1.938   11.22722   11.21612 7.9189e-01     8.8201     3.4716    41.9831   999.7599  0.000e+00
      8.876    10.2013    10.2038     98.020  69.013240     12.625     0.2136      1.901   11.23144   11.22035 7.3153e-01     8.4342     3.4681    42.0201   999.7620  0.000e+00
      8.941    10.1769    10.1793     98.088  69.013246     12.717     0.2108      1.876   11.23788   11.22679 7.2039e-01     8.2095     3.4420    42.2955   999.7645  0.000e+00
      8.995    10.1473    10.1498     98.040  68.921776     12.794     0.2137      1.900   11.24569   11.23460 6.5971e-01     8.0484     3.4281    42.4421   999.7674  0.000e+00
      9.077    10.1270    10.1294     97.967  68.830306     12.911     0.2043      1.815   11.25107   11.23998 6.0125e-01     8.0654     3.3668    43.0980   999.7696  0.000e+00
      9.164    10.1091    10.1115     98.364  69.074247     13.035     0.2025      1.799   11.25580   11.24471 5.6712e-01     8.0654     3.2850    43.9878   999.7718  0.000e+00
      9.233    10.0881    10.0905     98.553  69.165728     13.133     0.1995      1.771   11.26136   11.25027 5.3653e-01     7.9297     3.2142    44.7740   999.7740  0.000e+00
      9.300    10.0712    10.0736     98.383  69.013272     13.228     0.1988      1.764   11.26584   11.25476 4.8608e-01     7.9043     3.1247    45.7868   999.7758  0.000e+00
      9.378    10.0581    10.0606     98.638  69.165736     13.339     0.1942      1.723   11.26930   11.25822 4.5130e-01     7.7326     3.0293    46.8913   999.7774  0.000e+00
      9.455    10.0460    10.0484     98.802  69.257217     13.449     0.1942      1.723   11.27253   11.26145 4.2267e-01     7.2662     2.9591    47.7220   999.7789  0.000e+00
      9.527    10.0314    10.0338     99.191  69.501162     13.550     0.1899      1.684   11.27638   11.26529 3.9877e-01     6.8295     2.8660    48.8458   999.7807  0.000e+00
      9.584    10.0174    10.0198     99.231  69.501165     13.631     0.1820      1.613   11.28011   11.26903 3.7032e-01     6.4288     2.8362    49.2115   999.7822  0.000e+00
      9.645    10.0019    10.0043     99.144  69.409691     13.719     0.1826      1.618   11.28422   11.27314 3.5011e-01     6.1066     2.8006    49.6512   999.7838  0.000e+00
      9.709     9.9887     9.9911     99.138  69.379201     13.810     0.1757      1.556   11.28774   11.27666 3.2454e-01     5.7865     2.7988    49.6734   999.7853  0.000e+00
      9.778     9.9789     9.9813     99.079  69.318219     13.908     0.1770      1.568   11.29034   11.27926 3.0633e-01     5.4770     2.7736    49.9873   999.7864  0.000e+00
      9.843     9.9691     9.9715     99.238  69.409699     14.000     0.1747      1.547   11.29295   11.28187 2.9632e-01     5.1632     2.8234    49.3684   999.7877  0.000e+00
      9.916     9.9581     9.9605     99.269  69.409702     14.103     0.1704      1.508   11.29588   11.28480 2.6778e-01     4.9597     2.8924    48.5245   999.7890  0.000e+00
     10.008     9.9484     9.9508     99.514  69.562169     14.235     0.1683      1.490   11.29846   11.28738 2.4680e-01     4.7393     2.9735    47.5502   999.7903  0.000e+00
     10.093     9.9373     9.9397     99.677  69.653652     14.355     0.1691      1.496   11.30141   11.29033 2.3715e-01     4.6099     2.9908    47.3459   999.7918  0.000e+00
     10.173     9.9260     9.9284     99.578  69.562176     14.469     0.1677      1.483   11.30444   11.29336 2.2044e-01     4.4637     2.9672    47.6257   999.7931  0.000e+00
     10.265     9.9168     9.9192     99.517  69.501192     14.600     0.1646      1.456   11.30689   11.29581 2.0645e-01     4.3301     2.9786    47.4895   999.7943  0.000e+00
     10.356     9.9100     9.9124     99.405  69.409716     14.730     0.1643      1.453   11.30870   11.29762 1.9438e-01     4.2199     2.9351    48.0092   999.7953  0.000e+00
     10.437     9.9051     9.9075     99.550  69.501196     14.844     0.1528      1.351   11.31000   11.29892 1.8305e-01     4.1372     2.9207    48.1824   999.7961  0.000e+00
     10.508     9.9002     9.9026     99.652  69.562184     14.946     0.1518      1.342   11.31131   11.30023 1.7809e-01     4.1351     2.9128    48.2772   999.7969  0.000e+00
     10.576     9.8939     9.8963     99.670  69.562185     15.043     0.1578      1.395   11.31299   11.30191 1.7035e-01     4.0249     2.8890    48.5659   999.7978  0.000e+00
     10.624     9.8882     9.8905     99.599  69.501201     15.111     0.1480      1.308   11.31454   11.30346 1.6339e-01     3.9507     2.8749    48.7377   999.7985  0.000e+00
     10.672     9.8818     9.8842     99.617  69.501203     15.179     0.1404      1.240   11.31623   11.30516 1.6718e-01     3.9210     2.8698    48.7999   999.7993  0.000e+00
     10.725     9.8775     9.8799     99.848  69.653669     15.255     0.1456      1.286   11.31738   11.30630 1.7207e-01     3.8447     2.8555    48.9746   999.8000  0.000e+00
     10.795     9.8746     9.8769     99.987  69.745150     15.354     0.1378      1.218   11.31816   11.30708 1.6418e-01     3.7705     2.8392    49.1745   999.8006  0.000e+00
     10.864     9.8700     9.8724    100.001  69.745151     15.452     0.1409      1.244   11.31937   11.30830 1.5805e-01     3.7005     2.8218    49.3892   999.8013  0.000e+00
     10.922     9.8644     9.8667    100.104  69.806140     15.535     0.1459      1.289   11.32088   11.30980 1.5267e-01     3.6687     2.8098    49.5372   999.8021  0.000e+00
     10.999     9.8605     9.8629    100.028  69.745154     15.644     0.1436      1.268   11.32191   11.31084 1.4789e-01     3.5754     2.7818    49.8852   999.8028  0.000e+00
     11.074     9.8574     9.8597    100.124  69.806142     15.751     0.1383      1.222   11.32275   11.31168 1.4172e-01     3.5839     2.7327    50.5011   999.8035  0.000e+00
     11.163     9.8535     9.8558    100.267  69.897624     15.877     0.1429      1.262   11.32379   11.31272 1.3565e-01     3.5564     2.7272    50.5707   999.8043  0.000e+00
     11.244     9.8496     9.8520    100.278  69.897625     15.993     0.1407      1.243   11.32482   11.31375 1.3652e-01     3.4419     2.6748    51.2370   999.8050  0.000e+00
     11.307     9.8461     9.8484    100.157  69.806146     16.082     0.1396      1.232   11.32578   11.31470 1.3364e-01     3.4716     2.6355    51.7434   999.8055  0.000e+00
     11.377     9.8424     9.8448    100.299  69.897628     16.182     0.1370      1.210   11.32675   11.31568 1.3303e-01     3.3740     2.5877    52.3652   999.8062  0.000e+00
     11.464     9.8384     9.8407    100.529  70.050097     16.305     0.1344      1.187   11.32782   11.31675 1.2863e-01     3.2681     2.5019    53.5009   999.8071  0.000e+00
     11.534     9.8333     9.8356    100.675  70.141580     16.405     0.1274      1.124   11.32919   11.31812 1.2566e-01     3.1684     2.4706    53.9214   999.8079  0.000e+00
     11.600     9.8262     9.8286    100.827  70.233064     16.499     0.1305      1.151   11.33107   11.32000 1.2635e-01     3.1112     2.4381    54.3611   999.8089  0.000e+00
     11.668     9.8198     9.8222    100.977  70.324548     16.596     0.1327      1.171   11.33279   11.32171 1.2612e-01     3.0200     2.4002    54.8779   999.8098  0.000e+00
     11.745     9.8150     9.8173    100.859  70.233067     16.706     0.1301      1.148   11.33408   11.32301 1.2244e-01     2.9458     2.4015    54.8601   999.8105  0.000e+00
     11.806     9.8113     9.8137    100.870  70.233069     16.791     0.1239      1.093   11.33507   11.32399 1.2063e-01     2.8886     2.3566    55.4805   999.8111  0.000e+00
     11.865     9.8083     9.8107    100.747  70.141588     16.876     0.1227      1.082   11.33587   11.32479 1.1940e-01     2.8695     2.3335    55.8018   999.8116  0.000e+00
     11.941     9.8061     9.8085    101.016  70.324553     16.984     0.1297      1.144   11.33645   11.32538 1.2085e-01     2.7572     2.3204    55.9839   999.8123  0.000e+00
     12.017     9.8048     9.8072    101.108  70.385542     17.092     0.1279      1.128   11.33679   11.32572 1.1885e-01     2.7020     2.2823    56.5199   999.8127  0.000e+00
     12.091     9.8038     9.8062    100.892  70.233072     17.198     0.1233      1.088   11.33708   11.32601 1.2030e-01     2.6575     2.2622    56.8041   999.8131  0.000e+00
     12.155     9.8030     9.8054    101.025  70.324555     17.288     0.1222      1.077   11.33728   11.32620 1.1992e-01     2.6469     2.2289    57.2794   999.8135  0.000e+00
     12.232     9.8021     9.8044    100.897  70.233074     17.398     0.1199      1.058   11.33755   11.32647 1.1839e-01     2.5854     2.1928    57.7991   999.8139  0.000e+00
     12.312     9.8009     9.8033    100.900  70.233074     17.512     0.1205      1.063   11.33784   11.32677 1.1539e-01     2.5600     2.1484    58.4447   999.8144  0.000e+00
     12.380     9.8001     9.8025    101.034  70.324557     17.609     0.1196      1.055   11.33806   11.32698 1.1587e-01     2.4858     2.1143    58.9451   999.8148  0.000e+00
     12.453     9.7997     9.8020    100.904  70.233076     17.712     0.1197      1.056   11.33819   11.32711 1.1534e-01     2.4561     2.0927    59.2635   999.8152  0.000e+00
     12.537     9.7991     9.8015    100.774  70.141595     17.832     0.1165      1.027   11.33833   11.32726 1.1420e-01     2.4010     2.0695    59.6085   999.8156  0.000e+00
     12.618     9.7979     9.8003    101.128  70.385548     17.946     0.1201      1.060   11.33865   11.32757 1.1544e-01     2.3099     2.0471    59.9431   999.8162  0.000e+00
     12.699     9.7964     9.7988    101.132  70.385549     18.062     0.1145      1.009   11.33905   11.32798 1.1436e-01     2.2272     2.0448    59.9771   999.8167  0.000e+00
     12.785     9.7953     9.7977    101.135  70.385549     18.184     0.1192      1.051   11.33935   11.32828 1.1309e-01     2.1975     2.0382    60.0763   999.8172  0.000e+00
     12.861     9.7934     9.7958    101.141  70.385550     18.293     0.1206      1.064   11.33985   11.32878 1.1290e-01     2.2208     2.0171    60.3947   999.8177  0.000e+00
     12.935     9.7912     9.7936    101.147  70.385551     18.398     0.1164      1.027   11.34044   11.32937 1.1363e-01     2.1996     2.0147    60.4302   999.8182  0.000e+00
     13.015     9.7888     9.7912    101.417  70.568519     18.512     0.1102      0.972   11.34107   11.33000 1.1200e-01     2.1593     1.9955    60.7219   999.8189  0.000e+00
     13.088     9.7863     9.7887    101.644  70.720993     18.615     0.1102      0.972   11.34174   11.33066 1.1177e-01     2.1509     1.9753    61.0284   999.8195  0.000e+00
     13.149     9.7836     9.7859    101.520  70.629510     18.703     0.1132      0.998   11.34249   11.33142 1.1032e-01     2.0809     1.9787    60.9766   999.8200  0.000e+00
     13.209     9.7810     9.7833    101.309  70.477038     18.787     0.1066      0.940   11.34319   11.33211 1.1226e-01     2.0131     1.9628    61.2194   999.8204  0.000e+00
     13.293     9.7791     9.7815    101.314  70.477039     18.908     0.1123      0.990   11.34368   11.33261 1.1231e-01     1.9749     1.9615    61.2401   999.8210  0.000e+00
     13.387     9.7770     9.7793    101.539  70.629513     19.040     0.1093      0.963   11.34426   11.33318 1.1180e-01     1.9601     1.9580    61.2934   999.8217  0.000e+00
     13.466     9.7731     9.7754    101.814  70.812483     19.153     0.1079      0.951   11.34529   11.33422 1.0896e-01     1.9092     1.9400    61.5703   999.8225  0.000e+00
     13.547     9.7702     9.7725    101.472  70.568526     19.269     0.1188      1.047   11.34608   11.33501 1.1116e-01     1.8922     1.9416    61.5451   999.8230  0.000e+00
     13.633     9.7676     9.7699    101.567  70.629517     19.390     0.1160      1.022   11.34678   11.33571 1.0987e-01     1.8901     1.9212    61.8590   999.8237  0.000e+00
     13.717     9.7658     9.7682    101.572  70.629518     19.511     0.1154      1.017   11.34725   11.33618 1.0979e-01     1.9452     1.9146    61.9627   999.8242  0.000e+00
     13.791     9.7644     9.7668    101.576  70.629518     19.616     0.1071      0.944   11.34763   11.33655 1.0939e-01     1.8986     1.8864    62.4009   999.8247  0.000e+00
     13.860     9.7634     9.7658    101.711  70.721003     19.714     0.1036      0.913   11.34789   11.33681 1.0987e-01     1.8286     1.8774    62.5416   999.8251  0.000e+00
     13.934     9.7629     9.7653    101.581  70.629520     19.819     0.1059      0.934   11.34803   11.33696 1.0879e-01     1.8138     1.8610    62.7977   999.8255  0.000e+00
     14.023     9.7622     9.7646    101.714  70.721004     19.945     0.1051      0.926   11.34822   11.33714 1.0797e-01     1.8732     1.8512    62.9517   999.8260  0.000e+00
     14.102     9.7616     9.7639    101.716  70.721005     20.058     0.1032      0.910   11.34839   11.33731 1.0889e-01     1.8329     1.8411    63.1116   999.8264  0.000e+00
     14.176     9.7612     9.7635    101.717  70.721006     20.162     0.1015      0.894   11.34850   11.33742 1.0859e-01     1.8244     1.8358    63.1945   999.8268  0.000e+00
     14.255     9.7605     9.7629    101.938  70.873481     20.275     0.1055      0.930   11.34866   11.33759 1.0939e-01     1.7990     1.8323    63.2493   999.8273  0.000e+00
     14.344     9.7595     9.7618    102.073  70.964967     20.402     0.1055      0.930   11.34894   11.33786 1.0684e-01     1.8159     1.8284    63.3115   999.8279  0.000e+00
     14.424     9.7580     9.7603    102.209  71.056453     20.516     0.1073      0.946   11.34934   11.33827 1.0979e-01     1.8117     1.8205    63.4374   999.8284  0.000e+00
     14.495     9.7564     9.7587    102.214  71.056454     20.617     0.1040      0.916   11.34976   11.33869 1.0921e-01     1.7290     1.8154    63.5173   999.8289  0.000e+00
     14.573     9.7555     9.7578    102.304  71.117445     20.728     0.1005      0.885   11.35001   11.33893 1.0889e-01     1.6718     1.8261    63.3485   999.8294  0.000e+00
     14.643     9.7542     9.7565    102.220  71.056455     20.827     0.1074      0.946   11.35035   11.33928 1.0569e-01     1.7290     1.8324    63.2478   999.8298  0.000e+00
     14.704     9.7530     9.7554    101.960  70.873485     20.914     0.1060      0.934   11.35067   11.33960 1.0552e-01     1.7311     1.8417    63.1013   999.8301  0.000e+00
     14.781     9.7522     9.7545    102.226  71.056457     21.024     0.1095      0.965   11.35090   11.33983 1.1014e-01     1.6633     1.8505    62.9621   999.8306  0.000e+00
     14.855     9.7518     9.7542    102.447  71.208934     21.128     0.1087      0.958   11.35099   11.33991 1.0699e-01     1.6506     1.8488    62.9902   999.8311  0.000e+00
     14.926     9.7510     9.7533    102.317  71.117449     21.230     0.1042      0.918   11.35121   11.34014 1.0864e-01     1.5955     1.8453    63.0450   999.8314  0.000e+00
     15.004     9.7500     9.7523    102.233  71.056459     21.341     0.1054      0.928   11.35149   11.34042 1.0916e-01     1.6908     1.8391    63.1427   999.8318  0.000e+00
     15.082     9.7494     9.7517    102.234  71.056459     21.452     0.1003      0.884   11.35165   11.34058 1.0733e-01     1.6357     1.8499    62.9724   999.8323  0.000e+00
     15.150     9.7491     9.7514    102.718  71.391911     21.549     0.0937      0.825   11.35171   11.34064 1.0837e-01     1.6039     1.8337    63.2271   999.8328  0.000e+00
     15.224     9.7491     9.7515    102.718  71.391911     21.653     0.0930      0.820   11.35170   11.34062 1.1270e-01     1.5721     1.8293    63.2967   999.8331  0.000e+00
     15.310     9.7496     9.7519    102.716  71.391912     21.775     0.0940      0.828   11.35157   11.34050 1.0941e-01     1.5552     1.8403    63.1235   999.8335  0.000e+00
     15.379     9.7496     9.7519    102.936  71.544391     21.874     0.0974      0.858   11.35156   11.34049 1.0941e-01     1.5064     1.8351    63.2064   999.8339  0.000e+00
     15.445     9.7495     9.7519    103.506  71.940844     21.968     0.1001      0.881   11.35156   11.34049 1.1314e-01     1.5552     1.8225    63.4048   999.8344  0.000e+00
     15.525     9.7496     9.7519    102.716  71.391913     22.082     0.0974      0.858   11.35157   11.34050 1.1252e-01     1.6485     1.8115    63.5795   999.8345  0.000e+00
     15.605     9.7493     9.7517    129.275  89.850320     22.196     0.0985      0.868   11.35077   11.33970 1.1106e-01     1.6039     1.8299    63.2878   999.8445  0.000e+00
     15.666     9.7503     9.7526    213.888 148.663675     22.282     0.0995      0.877   11.34765   11.33659 1.0957e-01     1.5827     1.8419    63.0983   999.8757  0.000e+00
     15.701     9.7557     9.7580    228.787 159.044066     22.332     0.1017      0.896   11.34569   11.33464 1.0954e-01     1.5912     1.8392    63.1412   999.8810  0.000e+00
     15.747     9.7590     9.7613    234.273 162.872985     22.397     0.0965      0.850   11.34463   11.33358 1.1070e-01     1.5552     1.8437    63.0702   999.8830  0.000e+00
     15.779     9.7597     9.7620    235.458 163.700127     22.443     0.0962      0.848   11.34440   11.33335 1.1035e-01     1.5721     1.8439    63.0672   999.8835  0.000e+00
     15.808     9.7609     9.7632    236.552 164.466029     22.485     0.0916      0.807   11.34403   11.33298 1.0949e-01     1.5403     1.8739    62.5949   999.8839  0.000e+00
     15.850     9.7636     9.7659    236.622 164.527302     22.544     0.0954      0.841   11.34331   11.33226 1.0989e-01     1.5340     1.8447    63.0539   999.8839  0.000e+00
     15.874     9.7665     9.7688    237.219 164.956220     22.579     0.0986      0.870   11.34251   11.33146 1.0984e-01     1.4873     1.8443    63.0598   999.8840  0.000e+00
     15.890     9.7705     9.7728    238.028 165.538337     22.601     0.1011      0.891   11.34141   11.33036 1.1080e-01     1.6315     1.8499    62.9724   999.8840  0.000e+00
     15.900     9.7750     9.7774    239.407 166.518783     22.615     0.1026      0.905   11.34014   11.32909 1.1025e-01     1.6082     1.8561    62.8747   999.8842  0.000e+00
     15.906     9.7804     9.7828    240.118 167.039663     22.624     0.0959      0.845   11.33867   11.32762 1.0997e-01     1.5679     1.8782    62.5283   999.8841  0.000e+00
